5.000	1437.500
5.020	1379.167
5.040	1395.833
5.060	1408.333
5.080	1537.500
5.100	1554.167
5.120	1400.000
5.140	1370.833
5.160	1341.667
5.180	1495.833
5.200	1412.500
5.220	1325.000
5.240	1337.500
5.260	1383.333
5.280	1466.667
5.300	1495.833
5.320	1387.500
5.340	1258.333
5.360	1166.667
5.380	1112.500
5.400	1275.000
5.420	1370.833
5.440	1329.167
5.460	1395.833
5.480	1412.500
5.500	1329.167
5.520	1283.333
5.540	1229.167
5.560	1225.000
5.580	1220.833
5.600	1262.500
5.620	1300.000
5.640	1345.833
5.660	1304.167
5.680	1320.833
5.700	1345.833
5.720	1225.000
5.740	1187.500
5.760	1275.000
5.780	1279.167
5.800	1245.833
5.820	1258.333
5.840	1225.000
5.860	1216.667
5.880	1162.500
5.900	1162.500
5.920	1187.500
5.940	1233.333
5.960	1258.333
5.980	1254.167
6.000	1162.500
6.020	1208.333
6.040	1204.167
6.060	1095.833
6.080	1112.500
6.100	1166.667
6.120	1183.333
6.140	1225.000
6.160	1141.667
6.180	1120.833
6.200	1141.667
6.220	1208.333
6.240	1208.333
6.260	1254.167
6.280	1250.000
6.300	1216.667
6.320	1183.333
6.340	1133.333
6.360	1158.333
6.380	1141.667
6.400	1166.667
6.420	1254.167
6.440	1208.333
6.460	1162.500
6.480	1100.000
6.500	1066.667
6.520	1120.833
6.540	1166.667
6.560	1229.167
6.580	1129.167
6.600	1062.500
6.620	1116.667
6.640	1125.000
6.660	1100.000
6.680	1129.167
6.700	1120.833
6.720	1116.667
6.740	1112.500
6.760	1175.000
6.780	1183.333
6.800	1104.167
6.820	1125.000
6.840	1137.500
6.860	1158.333
6.880	1125.000
6.900	1050.000
6.920	1141.667
6.940	1100.000
6.960	1079.167
6.980	1116.667
7.000	1095.833
7.020	1075.000
7.040	1087.500
7.060	1008.333
7.080	1066.667
7.100	1166.667
7.120	1120.833
7.140	1083.333
7.160	1050.000
7.180	1079.167
7.200	1104.167
7.220	1179.167
7.240	1087.500
7.260	979.167
7.280	1058.333
7.300	1166.667
7.320	1120.833
7.340	1145.833
7.360	1162.500
7.380	1070.833
7.400	1087.500
7.420	1150.000
7.440	1195.833
7.460	1175.000
7.480	1137.500
7.500	1075.000
7.520	1075.000
7.540	991.667
7.560	983.333
7.580	1079.167
7.600	1125.000
7.620	1070.833
7.640	1100.000
7.660	1141.667
7.680	1083.333
7.700	1108.333
7.720	1108.333
7.740	1070.833
7.760	1129.167
7.780	1091.667
7.800	1204.167
7.820	1208.333
7.840	1045.833
7.860	1041.667
7.880	1120.833
7.900	1070.833
7.920	987.500
7.940	1016.667
7.960	1183.333
7.980	1175.000
8.000	1120.833
8.020	1125.000
8.040	1066.667
8.060	1033.333
8.080	1012.500
8.100	1095.833
8.120	1087.500
8.140	1037.500
8.160	1041.667
8.180	1058.333
8.200	1095.833
8.220	1108.333
8.240	1104.167
8.260	1087.500
8.280	1091.667
8.300	987.500
8.320	1137.500
8.340	1275.000
8.360	1125.000
8.380	1079.167
8.400	1033.333
8.420	987.500
8.440	1029.167
8.460	1145.833
8.480	1141.667
8.500	1108.333
8.520	1150.000
8.540	1083.333
8.560	1050.000
8.580	991.667
8.600	1112.500
8.620	1129.167
8.640	1120.833
8.660	1129.167
8.680	1129.167
8.700	1095.833
8.720	1125.000
8.740	1150.000
8.760	1091.667
8.780	1150.000
8.800	1100.000
8.820	1041.667
8.840	1058.333
8.860	1100.000
8.880	1141.667
8.900	1062.500
8.920	1025.000
8.940	1120.833
8.960	1150.000
8.980	1112.500
9.000	1191.667
9.020	1170.833
9.040	1112.500
9.060	1133.333
9.080	1133.333
9.100	1041.667
9.120	1083.333
9.140	1125.000
9.160	1133.333
9.180	1062.500
9.200	1079.167
9.220	1170.833
9.240	1120.833
9.260	1025.000
9.280	1029.167
9.300	1166.667
9.320	1145.833
9.340	1212.500
9.360	1254.167
9.380	1191.667
9.400	1191.667
9.420	1045.833
9.440	1087.500
9.460	1158.333
9.480	1079.167
9.500	1133.333
9.520	1125.000
9.540	1183.333
9.560	1162.500
9.580	1141.667
9.600	1095.833
9.620	1154.167
9.640	1108.333
9.660	1108.333
9.680	1116.667
9.700	1100.000
9.720	1191.667
9.740	1170.833
9.760	1125.000
9.780	1154.167
9.800	1154.167
9.820	1204.167
9.840	1154.167
9.860	1133.333
9.880	1125.000
9.900	1116.667
9.920	1095.833
9.940	1091.667
9.960	1154.167
9.980	1125.000
10.000	1116.667
10.020	1179.167
10.040	1129.167
10.060	1141.667
10.080	1108.333
10.100	1100.000
10.120	1162.500
10.140	1200.000
10.160	1133.333
10.180	1120.833
10.200	1108.333
10.220	1129.167
10.240	1129.167
10.260	1137.500
10.280	1162.500
10.300	1108.333
10.320	1150.000
10.340	1154.167
10.360	1120.833
10.380	1137.500
10.400	1191.667
10.420	1254.167
10.440	1287.500
10.460	1195.833
10.480	1154.167
10.500	1225.000
10.520	1166.667
10.540	1150.000
10.560	1050.000
10.580	1100.000
10.600	1187.500
10.620	1200.000
10.640	1154.167
10.660	1108.333
10.680	1100.000
10.700	1066.667
10.720	1066.667
10.740	1116.667
10.760	1187.500
10.780	1208.333
10.800	1166.667
10.820	1200.000
10.840	1204.167
10.860	1170.833
10.880	1233.333
10.900	1195.833
10.920	1204.167
10.940	1145.833
10.960	1075.000
10.980	1129.167
11.000	1200.000
11.020	1179.167
11.040	1166.667
11.060	1125.000
11.080	1154.167
11.100	1154.167
11.120	1150.000
11.140	1133.333
11.160	1125.000
11.180	1258.333
11.200	1245.833
11.220	1187.500
11.240	1204.167
11.260	1137.500
11.280	1104.167
11.300	1145.833
11.320	1166.667
11.340	1145.833
11.360	1137.500
11.380	1150.000
11.400	1166.667
11.420	1204.167
11.440	1208.333
11.460	1158.333
11.480	1179.167
11.500	1216.667
11.520	1150.000
11.540	1087.500
11.560	1116.667
11.580	1120.833
11.600	1008.333
11.620	1075.000
11.640	1137.500
11.660	1079.167
11.680	1141.667
11.700	1133.333
11.720	1058.333
11.740	1000.000
11.760	1025.000
11.780	1100.000
11.800	1095.833
11.820	1062.500
11.840	1112.500
11.860	1145.833
11.880	1154.167
11.900	1141.667
11.920	1075.000
11.940	1079.167
11.960	1133.333
11.980	1187.500
12.000	1204.167
12.020	1191.667
12.040	1175.000
12.060	1050.000
12.080	1116.667
12.100	1158.333
12.120	1104.167
12.140	1125.000
12.160	1133.333
12.180	1141.667
12.200	1158.333
12.220	1141.667
12.240	1079.167
12.260	1116.667
12.280	1100.000
12.300	1112.500
12.320	1095.833
12.340	1095.833
12.360	1141.667
12.380	1116.667
12.400	1070.833
12.420	1070.833
12.440	1041.667
12.460	1120.833
12.480	1041.667
12.500	1054.167
12.520	1091.667
12.540	1079.167
12.560	1095.833
12.580	1087.500
12.600	983.333
12.620	1008.333
12.640	1079.167
12.660	1095.833
12.680	1037.500
12.700	1045.833
12.720	1079.167
12.740	1062.500
12.760	1045.833
12.780	1004.167
12.800	1070.833
12.820	1095.833
12.840	1041.667
12.860	1033.333
12.880	1045.833
12.900	1037.500
12.920	1116.667
12.940	1108.333
12.960	1033.333
12.980	1045.833
13.000	1004.167
13.020	995.833
13.040	1133.333
13.060	1116.667
13.080	1108.333
13.100	1029.167
13.120	1079.167
13.140	1062.500
13.160	1075.000
13.180	1062.500
13.200	970.833
13.220	1000.000
13.240	979.167
13.260	929.167
13.280	1004.167
13.300	1037.500
13.320	1016.667
13.340	975.000
13.360	1045.833
13.380	1054.167
13.400	991.667
13.420	1066.667
13.440	1008.333
13.460	1025.000
13.480	1108.333
13.500	1058.333
13.520	1037.500
13.540	945.833
13.560	1020.833
13.580	979.167
13.600	929.167
13.620	945.833
13.640	1037.500
13.660	1075.000
13.680	1029.167
13.700	1058.333
13.720	1012.500
13.740	970.833
13.760	1008.333
13.780	1050.000
13.800	987.500
13.820	954.167
13.840	900.000
13.860	945.833
13.880	1066.667
13.900	1045.833
13.920	1004.167
13.940	1020.833
13.960	929.167
13.980	983.333
14.000	1000.000
14.020	912.500
14.040	962.500
14.060	941.667
14.080	937.500
14.100	1008.333
14.120	954.167
14.140	937.500
14.160	945.833
14.180	904.167
14.200	900.000
14.220	1033.333
14.240	1000.000
14.260	958.333
14.280	979.167
14.300	912.500
14.320	941.667
14.340	1004.167
14.360	979.167
14.380	983.333
14.400	995.833
14.420	1025.000
14.440	1037.500
14.460	995.833
14.480	966.667
14.500	983.333
14.520	975.000
14.540	979.167
14.560	983.333
14.580	962.500
14.600	933.333
14.620	933.333
14.640	1075.000
14.660	1029.167
14.680	1016.667
14.700	966.667
14.720	908.333
14.740	900.000
14.760	958.333
14.780	895.833
14.800	979.167
14.820	983.333
14.840	1033.333
14.860	1000.000
14.880	958.333
14.900	945.833
14.920	945.833
14.940	979.167
14.960	1004.167
14.980	954.167
15.000	933.333
15.020	929.167
15.040	1012.500
15.060	937.500
15.080	945.833
15.100	1008.333
15.120	983.333
15.140	1033.333
15.160	987.500
15.180	904.167
15.200	933.333
15.220	962.500
15.240	958.333
15.260	970.833
15.280	966.667
15.300	916.667
15.320	945.833
15.340	950.000
15.360	945.833
15.380	979.167
15.400	991.667
15.420	975.000
15.440	945.833
15.460	979.167
15.480	1016.667
15.500	1029.167
15.520	1004.167
15.540	979.167
15.560	925.000
15.580	1000.000
15.600	995.833
15.620	912.500
15.640	916.667
15.660	925.000
15.680	916.667
15.700	962.500
15.720	1008.333
15.740	970.833
15.760	958.333
15.780	975.000
15.800	945.833
15.820	925.000
15.840	933.333
15.860	883.333
15.880	904.167
15.900	958.333
15.920	995.833
15.940	941.667
15.960	854.167
15.980	870.833
16.000	866.667
16.020	883.333
16.040	916.667
16.060	916.667
16.080	912.500
16.100	891.667
16.120	829.167
16.140	891.667
16.160	954.167
16.180	866.667
16.200	895.833
16.220	900.000
16.240	879.167
16.260	920.833
16.280	854.167
16.300	866.667
16.320	975.000
16.340	983.333
16.360	895.833
16.380	945.833
16.400	929.167
16.420	900.000
16.440	916.667
16.460	833.333
16.480	870.833
16.500	891.667
16.520	925.000
16.540	870.833
16.560	925.000
16.580	866.667
16.600	883.333
16.620	950.000
16.640	979.167
16.660	950.000
16.680	879.167
16.700	870.833
16.720	900.000
16.740	916.667
16.760	883.333
16.780	879.167
16.800	850.000
16.820	887.500
16.840	875.000
16.860	908.333
16.880	962.500
16.900	995.833
16.920	937.500
16.940	941.667
16.960	962.500
16.980	933.333
17.000	929.167
17.020	950.000
17.040	987.500
17.060	925.000
17.080	937.500
17.100	875.000
17.120	904.167
17.140	887.500
17.160	845.833
17.180	945.833
17.200	1012.500
17.220	1008.333
17.240	900.000
17.260	891.667
17.280	950.000
17.300	916.667
17.320	916.667
17.340	945.833
17.360	958.333
17.380	950.000
17.400	945.833
17.420	895.833
17.440	920.833
17.460	958.333
17.480	916.667
17.500	870.833
17.520	841.667
17.540	850.000
17.560	895.833
17.580	875.000
17.600	858.333
17.620	825.000
17.640	795.833
17.660	862.500
17.680	854.167
17.700	808.333
17.720	787.500
17.740	862.500
17.760	937.500
17.780	966.667
17.800	858.333
17.820	833.333
17.840	900.000
17.860	879.167
17.880	875.000
17.900	900.000
17.920	875.000
17.940	883.333
17.960	900.000
17.980	829.167
18.000	837.500
18.020	875.000
18.040	891.667
18.060	875.000
18.080	804.167
18.100	825.000
18.120	858.333
18.140	829.167
18.160	825.000
18.180	904.167
18.200	950.000
18.220	850.000
18.240	716.667
18.260	825.000
18.280	879.167
18.300	866.667
18.320	887.500
18.340	870.833
18.360	895.833
18.380	929.167
18.400	900.000
18.420	900.000
18.440	870.833
18.460	854.167
18.480	833.333
18.500	841.667
18.520	787.500
18.540	779.167
18.560	825.000
18.580	820.833
18.600	858.333
18.620	879.167
18.640	933.333
18.660	895.833
18.680	854.167
18.700	825.000
18.720	841.667
18.740	870.833
18.760	883.333
18.780	829.167
18.800	891.667
18.820	879.167
18.840	825.000
18.860	795.833
18.880	833.333
18.900	870.833
18.920	891.667
18.940	912.500
18.960	916.667
18.980	962.500
19.000	983.333
19.020	991.667
19.040	995.833
19.060	1041.667
19.080	1008.333
19.100	1050.000
19.120	1037.500
19.140	1008.333
19.160	929.167
19.180	883.333
19.200	875.000
19.220	891.667
19.240	879.167
19.260	829.167
19.280	787.500
19.300	808.333
19.320	783.333
19.340	787.500
19.360	812.500
19.380	800.000
19.400	745.833
19.420	791.667
19.440	795.833
19.460	812.500
19.480	883.333
19.500	875.000
19.520	820.833
19.540	816.667
19.560	816.667
19.580	887.500
19.600	900.000
19.620	891.667
19.640	875.000
19.660	816.667
19.680	833.333
19.700	808.333
19.720	841.667
19.740	862.500
19.760	833.333
19.780	829.167
19.800	895.833
19.820	862.500
19.840	758.333
19.860	837.500
19.880	904.167
19.900	845.833
19.920	779.167
19.940	804.167
19.960	825.000
19.980	887.500
20.000	879.167
20.020	858.333
20.040	858.333
20.060	854.167
20.080	825.000
20.100	825.000
20.120	816.667
20.140	787.500
20.160	845.833
20.180	870.833
20.200	845.833
20.220	870.833
20.240	850.000
20.260	791.667
20.280	816.667
20.300	800.000
20.320	741.667
20.340	795.833
20.360	850.000
20.380	845.833
20.400	833.333
20.420	866.667
20.440	870.833
20.460	845.833
20.480	800.000
20.500	729.167
20.520	729.167
20.540	787.500
20.560	795.833
20.580	779.167
20.600	787.500
20.620	779.167
20.640	770.833
20.660	775.000
20.680	825.000
20.700	850.000
20.720	825.000
20.740	825.000
20.760	862.500
20.780	854.167
20.800	787.500
20.820	750.000
20.840	762.500
20.860	779.167
20.880	812.500
20.900	858.333
20.920	833.333
20.940	825.000
20.960	808.333
20.980	845.833
21.000	762.500
21.020	670.833
21.040	704.167
21.060	750.000
21.080	750.000
21.100	770.833
21.120	800.000
21.140	800.000
21.160	812.500
21.180	841.667
21.200	795.833
21.220	812.500
21.240	779.167
21.260	808.333
21.280	795.833
21.300	770.833
21.320	758.333
21.340	808.333
21.360	829.167
21.380	808.333
21.400	787.500
21.420	800.000
21.440	770.833
21.460	812.500
21.480	800.000
21.500	750.000
21.520	729.167
21.540	720.833
21.560	766.667
21.580	754.167
21.600	720.833
21.620	762.500
21.640	816.667
21.660	829.167
21.680	779.167
21.700	720.833
21.720	762.500
21.740	858.333
21.760	833.333
21.780	808.333
21.800	816.667
21.820	833.333
21.840	845.833
21.860	812.500
21.880	841.667
21.900	850.000
21.920	791.667
21.940	745.833
21.960	775.000
21.980	800.000
22.000	804.167
22.020	816.667
22.040	800.000
22.060	791.667
22.080	812.500
22.100	779.167
22.120	733.333
22.140	808.333
22.160	816.667
22.180	766.667
22.200	791.667
22.220	816.667
22.240	895.833
22.260	841.667
22.280	829.167
22.300	795.833
22.320	841.667
22.340	866.667
22.360	800.000
22.380	766.667
22.400	787.500
22.420	804.167
22.440	820.833
22.460	775.000
22.480	800.000
22.500	775.000
22.520	725.000
22.540	737.500
22.560	787.500
22.580	808.333
22.600	787.500
22.620	816.667
22.640	779.167
22.660	737.500
22.680	716.667
22.700	729.167
22.720	783.333
22.740	833.333
22.760	820.833
22.780	783.333
22.800	762.500
22.820	766.667
22.840	729.167
22.860	791.667
22.880	825.000
22.900	745.833
22.920	737.500
22.940	733.333
22.960	762.500
22.980	779.167
23.000	729.167
23.020	729.167
23.040	800.000
23.060	829.167
23.080	829.167
23.100	795.833
23.120	725.000
23.140	733.333
23.160	745.833
23.180	758.333
23.200	816.667
23.220	754.167
23.240	766.667
23.260	795.833
23.280	816.667
23.300	845.833
23.320	870.833
23.340	812.500
23.360	787.500
23.380	766.667
23.400	820.833
23.420	829.167
23.440	841.667
23.460	812.500
23.480	770.833
23.500	825.000
23.520	816.667
23.540	800.000
23.560	766.667
23.580	770.833
23.600	837.500
23.620	862.500
23.640	866.667
23.660	833.333
23.680	808.333
23.700	829.167
23.720	891.667
23.740	854.167
23.760	850.000
23.780	883.333
23.800	883.333
23.820	841.667
23.840	812.500
23.860	775.000
23.880	779.167
23.900	795.833
23.920	900.000
23.940	937.500
23.960	879.167
23.980	833.333
24.000	820.833
24.020	829.167
24.040	841.667
24.060	850.000
24.080	841.667
24.100	791.667
24.120	833.333
24.140	850.000
24.160	770.833
24.180	750.000
24.200	804.167
24.220	845.833
24.240	783.333
24.260	808.333
24.280	812.500
24.300	800.000
24.320	800.000
24.340	766.667
24.360	754.167
24.380	762.500
24.400	762.500
24.420	750.000
24.440	766.667
24.460	745.833
24.480	750.000
24.500	745.833
24.520	733.333
24.540	708.333
24.560	683.333
24.580	729.167
24.600	716.667
24.620	729.167
24.640	837.500
24.660	841.667
24.680	770.833
24.700	754.167
24.720	766.667
24.740	745.833
24.760	733.333
24.780	766.667
24.800	812.500
24.820	775.000
24.840	720.833
24.860	716.667
24.880	708.333
24.900	737.500
24.920	775.000
24.940	716.667
24.960	708.333
24.980	758.333
25.000	795.833
25.020	750.000
25.040	695.833
25.060	695.833
25.080	750.000
25.100	770.833
25.120	720.833
25.140	720.833
25.160	766.667
25.180	733.333
25.200	725.000
25.220	745.833
25.240	737.500
25.260	783.333
25.280	766.667
25.300	704.167
25.320	683.333
25.340	687.500
25.360	683.333
25.380	691.667
25.400	787.500
25.420	825.000
25.440	733.333
25.460	775.000
25.480	850.000
25.500	783.333
25.520	754.167
25.540	775.000
25.560	791.667
25.580	775.000
25.600	791.667
25.620	808.333
25.640	808.333
25.660	808.333
25.680	820.833
25.700	804.167
25.720	837.500
25.740	833.333
25.760	837.500
25.780	845.833
25.800	820.833
25.820	854.167
25.840	808.333
25.860	737.500
25.880	779.167
25.900	854.167
25.920	825.000
25.940	804.167
25.960	762.500
25.980	775.000
26.000	720.833
26.020	666.667
26.040	737.500
26.060	704.167
26.080	712.500
26.100	800.000
26.120	808.333
26.140	750.000
26.160	729.167
26.180	762.500
26.200	741.667
26.220	662.500
26.240	675.000
26.260	695.833
26.280	691.667
26.300	662.500
26.320	679.167
26.340	725.000
26.360	729.167
26.380	737.500
26.400	733.333
26.420	695.833
26.440	725.000
26.460	770.833
26.480	716.667
26.500	704.167
26.520	725.000
26.540	720.833
26.560	766.667
26.580	783.333
26.600	741.667
26.620	737.500
26.640	758.333
26.660	754.167
26.680	737.500
26.700	787.500
26.720	816.667
26.740	754.167
26.760	779.167
26.780	804.167
26.800	745.833
26.820	691.667
26.840	691.667
26.860	741.667
26.880	795.833
26.900	795.833
26.920	804.167
26.940	816.667
26.960	820.833
26.980	833.333
27.000	812.500
27.020	762.500
27.040	791.667
27.060	812.500
27.080	770.833
27.100	800.000
27.120	812.500
27.140	758.333
27.160	737.500
27.180	783.333
27.200	812.500
27.220	737.500
27.240	754.167
27.260	825.000
27.280	816.667
27.300	837.500
27.320	850.000
27.340	900.000
27.360	912.500
27.380	866.667
27.400	820.833
27.420	779.167
27.440	804.167
27.460	854.167
27.480	816.667
27.500	775.000
27.520	795.833
27.540	812.500
27.560	795.833
27.580	770.833
27.600	758.333
27.620	775.000
27.640	733.333
27.660	716.667
27.680	708.333
27.700	712.500
27.720	733.333
27.740	795.833
27.760	770.833
27.780	725.000
27.800	733.333
27.820	729.167
27.840	741.667
27.860	716.667
27.880	695.833
27.900	670.833
27.920	675.000
27.940	737.500
27.960	787.500
27.980	745.833
28.000	758.333
28.020	829.167
28.040	787.500
28.060	700.000
28.080	658.333
28.100	687.500
28.120	712.500
28.140	704.167
28.160	720.833
28.180	729.167
28.200	704.167
28.220	745.833
28.240	750.000
28.260	741.667
28.280	800.000
28.300	808.333
28.320	770.833
28.340	787.500
28.360	833.333
28.380	875.000
28.400	879.167
28.420	837.500
28.440	850.000
28.460	854.167
28.480	816.667
28.500	812.500
28.520	845.833
28.540	875.000
28.560	854.167
28.580	808.333
28.600	841.667
28.620	870.833
28.640	866.667
28.660	925.000
28.680	891.667
28.700	858.333
28.720	883.333
28.740	900.000
28.760	970.833
28.780	916.667
28.800	829.167
28.820	812.500
28.840	800.000
28.860	845.833
28.880	908.333
28.900	879.167
28.920	854.167
28.940	895.833
28.960	883.333
28.980	883.333
29.000	875.000
29.020	875.000
29.040	862.500
29.060	850.000
29.080	937.500
29.100	966.667
29.120	904.167
29.140	862.500
29.160	870.833
29.180	870.833
29.200	887.500
29.220	933.333
29.240	920.833
29.260	929.167
29.280	895.833
29.300	820.833
29.320	825.000
29.340	858.333
29.360	900.000
29.380	887.500
29.400	866.667
29.420	916.667
29.440	983.333
29.460	933.333
29.480	875.000
29.500	887.500
29.520	879.167
29.540	858.333
29.560	866.667
29.580	875.000
29.600	904.167
29.620	891.667
29.640	833.333
29.660	829.167
29.680	833.333
29.700	833.333
29.720	829.167
29.740	862.500
29.760	887.500
29.780	845.833
29.800	800.000
29.820	795.833
29.840	779.167
29.860	754.167
29.880	825.000
29.900	900.000
29.920	812.500
29.940	775.000
29.960	800.000
29.980	800.000
30.000	841.667
30.020	854.167
30.040	800.000
30.060	787.500
30.080	850.000
30.100	920.833
30.120	900.000
30.140	866.667
30.160	916.667
30.180	966.667
30.200	1041.667
30.220	1108.333
30.240	1104.167
30.260	1033.333
30.280	1054.167
30.300	1079.167
30.320	1045.833
30.340	1016.667
30.360	1020.833
30.380	1020.833
30.400	987.500
30.420	1008.333
30.440	1037.500
30.460	966.667
30.480	904.167
30.500	920.833
30.520	945.833
30.540	937.500
30.560	925.000
30.580	950.000
30.600	1004.167
30.620	1070.833
30.640	1091.667
30.660	1066.667
30.680	1087.500
30.700	1137.500
30.720	1141.667
30.740	1216.667
30.760	1320.833
30.780	1345.833
30.800	1312.500
30.820	1350.000
30.840	1483.333
30.860	1491.667
30.880	1375.000
30.900	1408.333
30.920	1504.167
30.940	1495.833
30.960	1450.000
30.980	1516.667
31.000	1579.167
31.020	1500.000
31.040	1562.500
31.060	1654.167
31.080	1629.167
31.100	1670.833
31.120	1683.333
31.140	1637.500
31.160	1691.667
31.180	1770.833
31.200	1858.333
31.220	1945.833
31.240	2025.000
31.260	2170.833
31.280	2279.167
31.300	2329.167
31.320	2420.833
31.340	2612.500
31.360	2812.500
31.380	2954.167
31.400	3108.333
31.420	3316.667
31.440	3491.667
31.460	3700.000
31.480	4037.500
31.500	4316.667
31.520	4625.000
31.540	5241.667
31.560	6087.500
31.580	7375.000
31.600	8925.000
31.620	10933.333
31.640	14320.833
31.660	18987.500
31.680	25812.500
31.700	35516.667
31.720	48308.333
31.740	63466.667
31.760	78929.167
31.780	92908.333
31.800	102245.833
31.820	104816.667
31.840	99958.333
31.860	89629.167
31.880	76654.167
31.900	63062.500
31.920	50216.667
31.940	37620.833
31.960	26754.167
31.980	18654.167
32.000	13208.333
32.020	9862.500
32.040	7720.833
32.060	6429.167
32.080	5512.500
32.100	4812.500
32.120	4229.167
32.140	3758.333
32.160	3516.667
32.180	3270.833
32.200	2845.833
32.220	2558.333
32.240	2354.167
32.260	2316.667
32.280	2370.833
32.300	2216.667
32.320	1983.333
32.340	1829.167
32.360	1725.000
32.380	1720.833
32.400	1700.000
32.420	1604.167
32.440	1566.667
32.460	1570.833
32.480	1554.167
32.500	1541.667
32.520	1541.667
32.540	1541.667
32.560	1566.667
32.580	1570.833
32.600	1454.167
32.620	1437.500
32.640	1500.000
32.660	1504.167
32.680	1462.500
32.700	1350.000
32.720	1329.167
32.740	1329.167
32.760	1266.667
32.780	1229.167
32.800	1237.500
32.820	1258.333
32.840	1341.667
32.860	1316.667
32.880	1233.333
32.900	1154.167
32.920	1162.500
32.940	1212.500
32.960	1204.167
32.980	1233.333
33.000	1150.000
33.020	1150.000
33.040	1216.667
33.060	1183.333
33.080	1158.333
33.100	1191.667
33.120	1262.500
33.140	1287.500
33.160	1266.667
33.180	1187.500
33.200	1154.167
33.220	1229.167
33.240	1366.667
33.260	1379.167
33.280	1358.333
33.300	1379.167
33.320	1404.167
33.340	1362.500
33.360	1412.500
33.380	1475.000
33.400	1504.167
33.420	1450.000
33.440	1437.500
33.460	1420.833
33.480	1333.333
33.500	1375.000
33.520	1383.333
33.540	1329.167
33.560	1387.500
33.580	1433.333
33.600	1491.667
33.620	1533.333
33.640	1500.000
33.660	1441.667
33.680	1454.167
33.700	1512.500
33.720	1462.500
33.740	1454.167
33.760	1545.833
33.780	1579.167
33.800	1679.167
33.820	1683.333
33.840	1675.000
33.860	1766.667
33.880	1816.667
33.900	1779.167
33.920	1829.167
33.940	1883.333
33.960	1908.333
33.980	2079.167
34.000	2195.833
34.020	2179.167
34.040	2229.167
34.060	2379.167
34.080	2450.000
34.100	2545.833
34.120	2712.500
34.140	2995.833
34.160	3287.500
34.180	3537.500
34.200	3787.500
34.220	4391.667
34.240	5287.500
34.260	6462.500
34.280	8050.000
34.300	10125.000
34.320	13458.333
34.340	18450.000
34.360	25208.333
34.380	34141.667
34.400	45141.667
34.420	56316.667
34.440	66162.500
34.460	72829.167
34.480	74187.500
34.500	70691.667
34.520	63625.000
34.540	54191.667
34.560	45325.000
34.580	36904.167
34.600	28325.000
34.620	20804.167
34.640	14795.833
34.660	10612.500
34.680	8112.500
34.700	6391.667
34.720	5183.333
34.740	4312.500
34.760	3758.333
34.780	3379.167
34.800	3137.500
34.820	2991.667
34.840	2787.500
34.860	2575.000
34.880	2429.167
34.900	2279.167
34.920	2237.500
34.940	2137.500
34.960	2095.833
34.980	2112.500
35.000	2062.500
35.020	1991.667
35.040	2029.167
35.060	2187.500
35.080	2208.333
35.100	2154.167
35.120	2179.167
35.140	2220.833
35.160	2212.500
35.180	2216.667
35.200	2262.500
35.220	2150.000
35.240	2062.500
35.260	2200.000
35.280	2091.667
35.300	2050.000
35.320	2170.833
35.340	2120.833
35.360	2137.500
35.380	2333.333
35.400	2383.333
35.420	2400.000
35.440	2520.833
35.460	2575.000
35.480	2675.000
35.500	2833.333
35.520	3054.167
35.540	3250.000
35.560	3333.333
35.580	3358.333
35.600	3450.000
35.620	3512.500
35.640	3441.667
35.660	3333.333
35.680	3329.167
35.700	3429.167
35.720	3558.333
35.740	3654.167
35.760	3658.333
35.780	3679.167
35.800	3795.833
35.820	4041.667
35.840	4200.000
35.860	4383.333
35.880	4791.667
35.900	5025.000
35.920	5295.833
35.940	5737.500
35.960	6212.500
35.980	6775.000
36.000	7412.500
36.020	8195.833
36.040	9620.833
36.060	11325.000
36.080	13979.167
36.100	17645.833
36.120	22508.333
36.140	29737.500
36.160	39720.833
36.180	53225.000
36.200	71987.500
36.220	95570.833
36.240	120516.667
36.260	143050.000
36.280	159870.833
36.300	167579.167
36.320	165387.500
36.340	153483.333
36.360	135100.000
36.380	116466.667
36.400	98437.500
36.420	79345.833
36.440	60566.667
36.460	44466.667
36.480	32308.333
36.500	23550.000
36.520	17704.167
36.540	14112.500
36.560	11350.000
36.580	9358.333
36.600	8150.000
36.620	7179.167
36.640	6358.333
36.660	5658.333
36.680	5045.833
36.700	4700.000
36.720	4308.333
36.740	3941.667
36.760	3654.167
36.780	3354.167
36.800	3054.167
36.820	2858.333
36.840	2850.000
36.860	2766.667
36.880	2550.000
36.900	2383.333
36.920	2379.167
36.940	2429.167
36.960	2420.833
36.980	2270.833
37.000	2083.333
37.020	1975.000
37.040	1941.667
37.060	1991.667
37.080	1970.833
37.100	1933.333
37.120	1933.333
37.140	1854.167
37.160	1870.833
37.180	1937.500
37.200	1979.167
37.220	2012.500
37.240	1879.167
37.260	1812.500
37.280	1795.833
37.300	1729.167
37.320	1691.667
37.340	1654.167
37.360	1620.833
37.380	1529.167
37.400	1579.167
37.420	1566.667
37.440	1487.500
37.460	1504.167
37.480	1450.000
37.500	1437.500
37.520	1475.000
37.540	1429.167
37.560	1475.000
37.580	1425.000
37.600	1333.333
37.620	1425.000
37.640	1491.667
37.660	1395.833
37.680	1362.500
37.700	1345.833
37.720	1375.000
37.740	1416.667
37.760	1354.167
37.780	1320.833
37.800	1295.833
37.820	1279.167
37.840	1345.833
37.860	1358.333
37.880	1350.000
37.900	1320.833
37.920	1300.000
37.940	1266.667
37.960	1329.167
37.980	1329.167
38.000	1229.167
38.020	1191.667
38.040	1279.167
38.060	1329.167
38.080	1291.667
38.100	1320.833
38.120	1337.500
38.140	1320.833
38.160	1258.333
38.180	1241.667
38.200	1229.167
38.220	1158.333
38.240	1145.833
38.260	1179.167
38.280	1266.667
38.300	1250.000
38.320	1241.667
38.340	1308.333
38.360	1250.000
38.380	1250.000
38.400	1245.833
38.420	1158.333
38.440	1191.667
38.460	1333.333
38.480	1300.000
38.500	1270.833
38.520	1304.167
38.540	1358.333
38.560	1420.833
38.580	1516.667
38.600	1525.000
38.620	1529.167
38.640	1675.000
38.660	1850.000
38.680	2008.333
38.700	2141.667
38.720	2208.333
38.740	2154.167
38.760	2075.000
38.780	2070.833
38.800	2025.000
38.820	1912.500
38.840	1812.500
38.860	1695.833
38.880	1558.333
38.900	1475.000
38.920	1445.833
38.940	1433.333
38.960	1404.167
38.980	1354.167
39.000	1358.333
39.020	1316.667
39.040	1266.667
39.060	1287.500
39.080	1300.000
39.100	1325.000
39.120	1295.833
39.140	1195.833
39.160	1087.500
39.180	1108.333
39.200	1120.833
39.220	1050.000
39.240	1016.667
39.260	1012.500
39.280	1033.333
39.300	1020.833
39.320	1058.333
39.340	1066.667
39.360	1058.333
39.380	1050.000
39.400	1016.667
39.420	1004.167
39.440	1045.833
39.460	1016.667
39.480	975.000
39.500	945.833
39.520	895.833
39.540	933.333
39.560	1012.500
39.580	995.833
39.600	958.333
39.620	945.833
39.640	979.167
39.660	1004.167
39.680	975.000
39.700	979.167
39.720	1012.500
39.740	1033.333
39.760	1004.167
39.780	962.500
39.800	908.333
39.820	920.833
39.840	1008.333
39.860	1008.333
39.880	962.500
39.900	979.167
39.920	970.833
39.940	941.667
39.960	912.500
39.980	979.167
40.000	958.333
40.020	983.333
40.040	1020.833
40.060	941.667
40.080	904.167
40.100	975.000
40.120	991.667
40.140	883.333
40.160	883.333
40.180	925.000
40.200	937.500
40.220	895.833
40.240	883.333
40.260	941.667
40.280	941.667
40.300	970.833
40.320	966.667
40.340	929.167
40.360	945.833
40.380	950.000
40.400	887.500
40.420	866.667
40.440	958.333
40.460	945.833
40.480	908.333
40.500	941.667
40.520	945.833
40.540	945.833
40.560	920.833
40.580	904.167
40.600	883.333
40.620	883.333
40.640	887.500
40.660	908.333
40.680	908.333
40.700	904.167
40.720	908.333
40.740	887.500
40.760	875.000
40.780	875.000
40.800	841.667
40.820	841.667
40.840	858.333
40.860	854.167
40.880	866.667
40.900	812.500
40.920	833.333
40.940	883.333
40.960	895.833
40.980	908.333
41.000	900.000
41.020	925.000
41.040	945.833
41.060	925.000
41.080	895.833
41.100	887.500
41.120	895.833
41.140	925.000
41.160	891.667
41.180	850.000
41.200	904.167
41.220	904.167
41.240	912.500
41.260	854.167
41.280	812.500
41.300	841.667
41.320	862.500
41.340	833.333
41.360	866.667
41.380	879.167
41.400	875.000
41.420	845.833
41.440	787.500
41.460	825.000
41.480	783.333
41.500	800.000
41.520	845.833
41.540	850.000
41.560	816.667
41.580	791.667
41.600	804.167
41.620	750.000
41.640	795.833
41.660	875.000
41.680	808.333
41.700	762.500
41.720	800.000
41.740	808.333
41.760	804.167
41.780	808.333
41.800	820.833
41.820	845.833
41.840	750.000
41.860	712.500
41.880	750.000
41.900	833.333
41.920	820.833
41.940	745.833
41.960	737.500
41.980	775.000
42.000	766.667
42.020	725.000
42.040	762.500
42.060	716.667
42.080	720.833
42.100	783.333
42.120	808.333
42.140	754.167
42.160	729.167
42.180	725.000
42.200	733.333
42.220	758.333
42.240	754.167
42.260	745.833
42.280	791.667
42.300	837.500
42.320	800.000
42.340	775.000
42.360	737.500
42.380	733.333
42.400	725.000
42.420	741.667
42.440	775.000
42.460	725.000
42.480	712.500
42.500	758.333
42.520	737.500
42.540	716.667
42.560	725.000
42.580	762.500
42.600	783.333
42.620	766.667
42.640	762.500
42.660	833.333
42.680	804.167
42.700	808.333
42.720	808.333
42.740	720.833
42.760	704.167
42.780	741.667
42.800	766.667
42.820	795.833
42.840	741.667
42.860	762.500
42.880	825.000
42.900	862.500
42.920	787.500
42.940	737.500
42.960	737.500
42.980	791.667
43.000	783.333
43.020	758.333
43.040	733.333
43.060	708.333
43.080	775.000
43.100	829.167
43.120	870.833
43.140	950.000
43.160	1037.500
43.180	987.500
43.200	912.500
43.220	950.000
43.240	987.500
43.260	1012.500
43.280	1112.500
43.300	1087.500
43.320	1066.667
43.340	941.667
43.360	870.833
43.380	862.500
43.400	808.333
43.420	795.833
43.440	791.667
43.460	754.167
43.480	720.833
43.500	691.667
43.520	770.833
43.540	733.333
43.560	670.833
43.580	720.833
43.600	741.667
43.620	741.667
43.640	741.667
43.660	691.667
43.680	654.167
43.700	687.500
43.720	745.833
43.740	762.500
43.760	683.333
43.780	733.333
43.800	800.000
43.820	770.833
43.840	683.333
43.860	662.500
43.880	708.333
43.900	712.500
43.920	700.000
43.940	737.500
43.960	725.000
43.980	691.667
44.000	700.000
44.020	733.333
44.040	741.667
44.060	708.333
44.080	716.667
44.100	654.167
44.120	662.500
44.140	666.667
44.160	700.000
44.180	720.833
44.200	716.667
44.220	716.667
44.240	695.833
44.260	741.667
44.280	733.333
44.300	675.000
44.320	695.833
44.340	675.000
44.360	662.500
44.380	666.667
44.400	654.167
44.420	704.167
44.440	729.167
44.460	691.667
44.480	695.833
44.500	700.000
44.520	645.833
44.540	662.500
44.560	725.000
44.580	745.833
44.600	750.000
44.620	737.500
44.640	679.167
44.660	708.333
44.680	691.667
44.700	683.333
44.720	695.833
44.740	712.500
44.760	700.000
44.780	675.000
44.800	704.167
44.820	733.333
44.840	695.833
44.860	712.500
44.880	766.667
44.900	779.167
44.920	762.500
44.940	704.167
44.960	741.667
44.980	750.000
45.000	741.667
45.020	750.000
45.040	725.000
45.060	783.333
45.080	837.500
45.100	825.000
45.120	841.667
45.140	845.833
45.160	766.667
45.180	754.167
45.200	762.500
45.220	791.667
45.240	791.667
45.260	808.333
45.280	775.000
45.300	700.000
45.320	758.333
45.340	783.333
45.360	704.167
45.380	725.000
45.400	779.167
45.420	762.500
45.440	716.667
45.460	758.333
45.480	712.500
45.500	654.167
45.520	670.833
45.540	666.667
45.560	650.000
45.580	641.667
45.600	662.500
45.620	662.500
45.640	704.167
45.660	662.500
45.680	591.667
45.700	645.833
45.720	695.833
45.740	720.833
45.760	670.833
45.780	750.000
45.800	745.833
45.820	670.833
45.840	679.167
45.860	716.667
45.880	741.667
45.900	733.333
45.920	716.667
45.940	716.667
45.960	725.000
45.980	754.167
46.000	770.833
46.020	745.833
46.040	741.667
46.060	720.833
46.080	712.500
46.100	745.833
46.120	795.833
46.140	779.167
46.160	750.000
46.180	795.833
46.200	825.000
46.220	858.333
46.240	820.833
46.260	779.167
46.280	775.000
46.300	808.333
46.320	837.500
46.340	854.167
46.360	854.167
46.380	737.500
46.400	695.833
46.420	729.167
46.440	783.333
46.460	783.333
46.480	762.500
46.500	858.333
46.520	929.167
46.540	908.333
46.560	870.833
46.580	837.500
46.600	816.667
46.620	791.667
46.640	770.833
46.660	812.500
46.680	787.500
46.700	787.500
46.720	837.500
46.740	870.833
46.760	908.333
46.780	854.167
46.800	858.333
46.820	875.000
46.840	879.167
46.860	966.667
46.880	975.000
46.900	950.000
46.920	950.000
46.940	933.333
46.960	987.500
46.980	1033.333
47.000	1041.667
47.020	1058.333
47.040	1095.833
47.060	1254.167
47.080	1320.833
47.100	1404.167
47.120	1391.667
47.140	1416.667
47.160	1466.667
47.180	1562.500
47.200	1662.500
47.220	1804.167
47.240	1900.000
47.260	2070.833
47.280	2279.167
47.300	2587.500
47.320	2987.500
47.340	3291.667
47.360	3783.333
47.380	4554.167
47.400	5445.833
47.420	6833.333
47.440	8891.667
47.460	11537.500
47.480	15054.167
47.500	19183.333
47.520	23716.667
47.540	27570.833
47.560	30929.167
47.580	32841.667
47.600	32741.667
47.620	30654.167
47.640	27979.167
47.660	25562.500
47.680	23520.833
47.700	21616.667
47.720	19354.167
47.740	16383.333
47.760	13087.500
47.780	10079.167
47.800	8025.000
47.820	6254.167
47.840	4850.000
47.860	4058.333
47.880	3404.167
47.900	2929.167
47.920	2516.667
47.940	2241.667
47.960	2020.833
47.980	1795.833
48.000	1625.000
48.020	1500.000
48.040	1408.333
48.060	1395.833
48.080	1320.833
48.100	1262.500
48.120	1150.000
48.140	1062.500
48.160	1075.000
48.180	1058.333
48.200	1008.333
48.220	1004.167
48.240	991.667
48.260	995.833
48.280	991.667
48.300	991.667
48.320	970.833
48.340	950.000
48.360	966.667
48.380	941.667
48.400	870.833
48.420	833.333
48.440	812.500
48.460	812.500
48.480	800.000
48.500	770.833
48.520	816.667
48.540	866.667
48.560	862.500
48.580	870.833
48.600	845.833
48.620	804.167
48.640	820.833
48.660	887.500
48.680	887.500
48.700	900.000
48.720	862.500
48.740	908.333
48.760	904.167
48.780	866.667
48.800	920.833
48.820	979.167
48.840	954.167
48.860	945.833
48.880	966.667
48.900	966.667
48.920	1008.333
48.940	958.333
48.960	883.333
48.980	891.667
49.000	866.667
49.020	837.500
49.040	770.833
49.060	787.500
49.080	812.500
49.100	750.000
49.120	737.500
49.140	770.833
49.160	750.000
49.180	729.167
49.200	762.500
49.220	783.333
49.240	787.500
49.260	733.333
49.280	741.667
49.300	729.167
49.320	679.167
49.340	750.000
49.360	808.333
49.380	775.000
49.400	733.333
49.420	716.667
49.440	733.333
49.460	745.833
49.480	700.000
49.500	654.167
49.520	608.333
49.540	633.333
49.560	712.500
49.580	704.167
49.600	687.500
49.620	695.833
49.640	687.500
49.660	687.500
49.680	695.833
49.700	670.833
49.720	666.667
49.740	700.000
49.760	720.833
49.780	662.500
49.800	654.167
49.820	658.333
49.840	658.333
49.860	670.833
49.880	670.833
49.900	645.833
49.920	662.500
49.940	720.833
49.960	716.667
49.980	720.833
50.000	695.833
50.020	658.333
50.040	716.667
50.060	750.000
50.080	704.167
50.100	654.167
50.120	679.167
50.140	700.000
50.160	704.167
50.180	658.333
50.200	654.167
50.220	654.167
50.240	670.833
50.260	729.167
50.280	675.000
50.300	637.500
50.320	650.000
50.340	691.667
50.360	704.167
50.380	654.167
50.400	641.667
50.420	670.833
50.440	700.000
50.460	683.333
50.480	658.333
50.500	666.667
50.520	729.167
50.540	754.167
50.560	712.500
50.580	729.167
50.600	679.167
50.620	641.667
50.640	666.667
50.660	700.000
50.680	720.833
50.700	700.000
50.720	645.833
50.740	704.167
50.760	725.000
50.780	712.500
50.800	712.500
50.820	720.833
50.840	687.500
50.860	629.167
50.880	675.000
50.900	712.500
50.920	729.167
50.940	745.833
50.960	720.833
50.980	716.667
51.000	700.000
51.020	658.333
51.040	687.500
51.060	733.333
51.080	691.667
51.100	641.667
51.120	604.167
51.140	637.500
51.160	679.167
51.180	666.667
51.200	687.500
51.220	729.167
51.240	691.667
51.260	616.667
51.280	641.667
51.300	695.833
51.320	712.500
51.340	666.667
51.360	633.333
51.380	650.000
51.400	654.167
51.420	666.667
51.440	604.167
51.460	637.500
51.480	658.333
51.500	658.333
51.520	683.333
51.540	658.333
51.560	683.333
51.580	679.167
51.600	645.833
51.620	633.333
51.640	629.167
51.660	658.333
51.680	708.333
51.700	683.333
51.720	645.833
51.740	666.667
51.760	683.333
51.780	662.500
51.800	662.500
51.820	670.833
51.840	670.833
51.860	633.333
51.880	612.500
51.900	670.833
51.920	645.833
51.940	625.000
51.960	645.833
51.980	662.500
52.000	645.833
52.020	637.500
52.040	679.167
52.060	704.167
52.080	704.167
52.100	683.333
52.120	675.000
52.140	633.333
52.160	629.167
52.180	658.333
52.200	658.333
52.220	662.500
52.240	637.500
52.260	629.167
52.280	650.000
52.300	658.333
52.320	625.000
52.340	583.333
52.360	616.667
52.380	670.833
52.400	645.833
52.420	650.000
52.440	704.167
52.460	720.833
52.480	662.500
52.500	625.000
52.520	641.667
52.540	691.667
52.560	650.000
52.580	608.333
52.600	608.333
52.620	579.167
52.640	608.333
52.660	579.167
52.680	633.333
52.700	712.500
52.720	666.667
52.740	662.500
52.760	687.500
52.780	683.333
52.800	658.333
52.820	641.667
52.840	662.500
52.860	691.667
52.880	687.500
52.900	691.667
52.920	695.833
52.940	716.667
52.960	704.167
52.980	691.667
53.000	691.667
53.020	708.333
53.040	754.167
53.060	766.667
53.080	720.833
53.100	666.667
53.120	691.667
53.140	737.500
53.160	737.500
53.180	737.500
53.200	720.833
53.220	683.333
53.240	650.000
53.260	679.167
53.280	691.667
53.300	691.667
53.320	708.333
53.340	691.667
53.360	679.167
53.380	704.167
53.400	745.833
53.420	737.500
53.440	708.333
53.460	745.833
53.480	770.833
53.500	779.167
53.520	795.833
53.540	829.167
53.560	845.833
53.580	812.500
53.600	783.333
53.620	758.333
53.640	670.833
53.660	650.000
53.680	712.500
53.700	712.500
53.720	720.833
53.740	708.333
53.760	662.500
53.780	695.833
53.800	729.167
53.820	716.667
53.840	670.833
53.860	658.333
53.880	687.500
53.900	662.500
53.920	654.167
53.940	662.500
53.960	670.833
53.980	650.000
54.000	658.333
54.020	708.333
54.040	683.333
54.060	658.333
54.080	687.500
54.100	670.833
54.120	625.000
54.140	620.833
54.160	637.500
54.180	670.833
54.200	641.667
54.220	637.500
54.240	679.167
54.260	683.333
54.280	629.167
54.300	645.833
54.320	654.167
54.340	625.000
54.360	625.000
54.380	637.500
54.400	666.667
54.420	695.833
54.440	712.500
54.460	770.833
54.480	762.500
54.500	687.500
54.520	708.333
54.540	787.500
54.560	825.000
54.580	770.833
54.600	737.500
54.620	766.667
54.640	816.667
54.660	833.333
54.680	862.500
54.700	808.333
54.720	787.500
54.740	862.500
54.760	862.500
54.780	829.167
54.800	783.333
54.820	779.167
54.840	804.167
54.860	850.000
54.880	912.500
54.900	883.333
54.920	845.833
54.940	837.500
54.960	820.833
54.980	783.333
55.000	733.333
55.020	833.333
55.040	904.167
55.060	879.167
55.080	891.667
55.100	925.000
55.120	933.333
55.140	850.000
55.160	783.333
55.180	833.333
55.200	866.667
55.220	854.167
55.240	845.833
55.260	891.667
55.280	916.667
55.300	866.667
55.320	866.667
55.340	912.500
55.360	900.000
55.380	912.500
55.400	916.667
55.420	912.500
55.440	962.500
55.460	904.167
55.480	845.833
55.500	908.333
55.520	933.333
55.540	937.500
55.560	1000.000
55.580	950.000
55.600	941.667
55.620	987.500
55.640	933.333
55.660	937.500
55.680	983.333
55.700	991.667
55.720	1020.833
55.740	1083.333
55.760	1000.000
55.780	995.833
55.800	1104.167
55.820	1033.333
55.840	1029.167
55.860	1041.667
55.880	1112.500
55.900	1195.833
55.920	1108.333
55.940	1087.500
55.960	1154.167
55.980	1241.667
56.000	1358.333
56.020	1358.333
56.040	1375.000
56.060	1541.667
56.080	1687.500
56.100	1687.500
56.120	1662.500
56.140	1804.167
56.160	1904.167
56.180	1945.833
56.200	2045.833
56.220	2216.667
56.240	2441.667
56.260	2645.833
56.280	2920.833
56.300	3316.667
56.320	3504.167
56.340	3804.167
56.360	4450.000
56.380	5079.167
56.400	5816.667
56.420	6804.167
56.440	8345.833
56.460	10250.000
56.480	12883.333
56.500	16762.500
56.520	21195.833
56.540	26550.000
56.560	32366.667
56.580	38158.333
56.600	42770.833
56.620	45454.167
56.640	45504.167
56.660	42975.000
56.680	39204.167
56.700	35879.167
56.720	33458.333
56.740	31429.167
56.760	29908.333
56.780	27808.333
56.800	24962.500
56.820	21533.333
56.840	17479.167
56.860	13933.333
56.880	10908.333
56.900	8362.500
56.920	6691.667
56.940	5520.833
56.960	4675.000
56.980	4000.000
57.000	3470.833
57.020	3037.500
57.040	2691.667
57.060	2429.167
57.080	2258.333
57.100	2054.167
57.120	1883.333
57.140	1787.500
57.160	1712.500
57.180	1591.667
57.200	1545.833
57.220	1483.333
57.240	1383.333
57.260	1379.167
57.280	1379.167
57.300	1295.833
57.320	1200.000
57.340	1154.167
57.360	1183.333
57.380	1150.000
57.400	1104.167
57.420	1133.333
57.440	1087.500
57.460	1004.167
57.480	1004.167
57.500	1008.333
57.520	983.333
57.540	987.500
57.560	1045.833
57.580	1062.500
57.600	1016.667
57.620	991.667
57.640	1016.667
57.660	987.500
57.680	941.667
57.700	925.000
57.720	916.667
57.740	875.000
57.760	854.167
57.780	883.333
57.800	887.500
57.820	970.833
57.840	1029.167
57.860	958.333
57.880	920.833
57.900	929.167
57.920	895.833
57.940	941.667
57.960	958.333
57.980	900.000
58.000	829.167
58.020	795.833
58.040	837.500
58.060	820.833
58.080	791.667
58.100	795.833
58.120	808.333
58.140	850.000
58.160	866.667
58.180	875.000
58.200	929.167
58.220	929.167
58.240	883.333
58.260	850.000
58.280	858.333
58.300	841.667
58.320	850.000
58.340	845.833
58.360	883.333
58.380	925.000
58.400	945.833
58.420	916.667
58.440	820.833
58.460	875.000
58.480	854.167
58.500	837.500
58.520	854.167
58.540	862.500
58.560	825.000
58.580	804.167
58.600	800.000
58.620	875.000
58.640	845.833
58.660	787.500
58.680	754.167
58.700	750.000
58.720	804.167
58.740	816.667
58.760	787.500
58.780	787.500
58.800	820.833
58.820	841.667
58.840	825.000
58.860	795.833
58.880	754.167
58.900	825.000
58.920	850.000
58.940	766.667
58.960	758.333
58.980	791.667
59.000	779.167
59.020	745.833
59.040	725.000
59.060	762.500
59.080	750.000
59.100	758.333
59.120	741.667
59.140	808.333
59.160	812.500
59.180	854.167
59.200	820.833
59.220	770.833
59.240	729.167
59.260	741.667
59.280	733.333
59.300	737.500
59.320	791.667
59.340	770.833
59.360	766.667
59.380	783.333
59.400	754.167
59.420	804.167
59.440	779.167
59.460	716.667
59.480	766.667
59.500	829.167
59.520	820.833
59.540	683.333
59.560	633.333
59.580	687.500
59.600	791.667
59.620	900.000
59.640	854.167
59.660	795.833
59.680	795.833
59.700	737.500
59.720	720.833
59.740	716.667
59.760	775.000
59.780	833.333
59.800	804.167
59.820	783.333
59.840	745.833
59.860	720.833
59.880	687.500
59.900	729.167
59.920	783.333
59.940	704.167
59.960	737.500
59.980	775.000
60.000	716.667
60.020	679.167
60.040	687.500
60.060	750.000
60.080	783.333
60.100	766.667
60.120	791.667
60.140	770.833
60.160	779.167
60.180	754.167
60.200	770.833
60.220	791.667
60.240	837.500
60.260	883.333
60.280	825.000
60.300	783.333
60.320	800.000
60.340	754.167
60.360	770.833
60.380	812.500
60.400	820.833
60.420	787.500
60.440	791.667
60.460	854.167
60.480	879.167
60.500	908.333
60.520	866.667
60.540	841.667
60.560	795.833
60.580	795.833
60.600	879.167
60.620	841.667
60.640	916.667
60.660	937.500
60.680	870.833
60.700	875.000
60.720	858.333
60.740	837.500
60.760	816.667
60.780	895.833
60.800	841.667
60.820	841.667
60.840	854.167
60.860	916.667
60.880	854.167
60.900	870.833
60.920	883.333
60.940	908.333
60.960	883.333
60.980	883.333
61.000	841.667
61.020	845.833
61.040	816.667
61.060	850.000
61.080	866.667
61.100	920.833
61.120	929.167
61.140	900.000
61.160	866.667
61.180	916.667
61.200	920.833
61.220	908.333
61.240	900.000
61.260	891.667
61.280	933.333
61.300	958.333
61.320	962.500
61.340	937.500
61.360	862.500
61.380	875.000
61.400	958.333
61.420	916.667
61.440	945.833
61.460	937.500
61.480	1033.333
61.500	1037.500
61.520	1058.333
61.540	1087.500
61.560	1129.167
61.580	1137.500
61.600	1025.000
61.620	1029.167
61.640	1008.333
61.660	1008.333
61.680	1004.167
61.700	1108.333
61.720	1029.167
61.740	983.333
61.760	987.500
61.780	1062.500
61.800	1120.833
61.820	1012.500
61.840	975.000
61.860	1045.833
61.880	1050.000
61.900	966.667
61.920	895.833
61.940	950.000
61.960	1050.000
61.980	1045.833
62.000	1029.167
62.020	1012.500
62.040	975.000
62.060	1041.667
62.080	1058.333
62.100	1108.333
62.120	1095.833
62.140	1070.833
62.160	1091.667
62.180	1112.500
62.200	1229.167
62.220	1295.833
62.240	1329.167
62.260	1291.667
62.280	1291.667
62.300	1429.167
62.320	1458.333
62.340	1525.000
62.360	1608.333
62.380	1683.333
62.400	1762.500
62.420	1866.667
62.440	2050.000
62.460	2187.500
62.480	2291.667
62.500	2604.167
62.520	2700.000
62.540	2908.333
62.560	3216.667
62.580	3616.667
62.600	4020.833
62.620	4483.333
62.640	4950.000
62.660	5770.833
62.680	6833.333
62.700	8416.667
62.720	9962.500
62.740	12175.000
62.760	15262.500
62.780	18358.333
62.800	22104.167
62.820	27195.833
62.840	32254.167
62.860	35270.833
62.880	36995.833
62.900	36791.667
62.920	34770.833
62.940	31720.833
62.960	28700.000
62.980	26654.167
63.000	25270.833
63.020	24604.167
63.040	23975.000
63.060	22954.167
63.080	20712.500
63.100	18145.833
63.120	15054.167
63.140	12562.500
63.160	10225.000
63.180	8104.167
63.200	6537.500
63.220	5250.000
63.240	4583.333
63.260	4062.500
63.280	3491.667
63.300	2987.500
63.320	2716.667
63.340	2525.000
63.360	2308.333
63.380	2179.167
63.400	2062.500
63.420	1908.333
63.440	1795.833
63.460	1712.500
63.480	1616.667
63.500	1483.333
63.520	1387.500
63.540	1354.167
63.560	1354.167
63.580	1350.000
63.600	1291.667
63.620	1220.833
63.640	1145.833
63.660	1104.167
63.680	1129.167
63.700	1175.000
63.720	1175.000
63.740	1129.167
63.760	1125.000
63.780	1045.833
63.800	1008.333
63.820	1029.167
63.840	987.500
63.860	1079.167
63.880	1100.000
63.900	1033.333
63.920	995.833
63.940	1000.000
63.960	1079.167
63.980	1029.167
64.000	958.333
64.020	945.833
64.040	900.000
64.060	858.333
64.080	875.000
64.100	983.333
64.120	962.500
64.140	966.667
64.160	933.333
64.180	925.000
64.200	933.333
64.220	883.333
64.240	887.500
64.260	966.667
64.280	983.333
64.300	979.167
64.320	941.667
64.340	966.667
64.360	900.000
64.380	941.667
64.400	1037.500
64.420	970.833
64.440	858.333
64.460	866.667
64.480	854.167
64.500	862.500
64.520	879.167
64.540	925.000
64.560	820.833
64.580	841.667
64.600	866.667
64.620	862.500
64.640	870.833
64.660	845.833
64.680	833.333
64.700	929.167
64.720	904.167
64.740	883.333
64.760	875.000
64.780	895.833
64.800	954.167
64.820	820.833
64.840	825.000
64.860	820.833
64.880	766.667
64.900	829.167
64.920	841.667
64.940	866.667
64.960	879.167
64.980	775.000
65.000	787.500
65.020	862.500
65.040	854.167
65.060	854.167
65.080	854.167
65.100	862.500
65.120	904.167
65.140	883.333
65.160	783.333
65.180	887.500
65.200	879.167
65.220	879.167
65.240	916.667
65.260	958.333
65.280	900.000
65.300	895.833
65.320	962.500
65.340	916.667
65.360	875.000
65.380	841.667
65.400	850.000
65.420	883.333
65.440	937.500
65.460	962.500
65.480	979.167
65.500	925.000
65.520	912.500
65.540	958.333
65.560	975.000
65.580	958.333
65.600	958.333
65.620	933.333
65.640	950.000
65.660	983.333
65.680	1070.833
65.700	1104.167
65.720	1041.667
65.740	1104.167
65.760	1083.333
65.780	1033.333
65.800	1104.167
65.820	1054.167
65.840	1062.500
65.860	1091.667
65.880	1162.500
65.900	1279.167
65.920	1170.833
65.940	1212.500
65.960	1208.333
65.980	1166.667
66.000	1216.667
66.020	1350.000
66.040	1291.667
66.060	1354.167
66.080	1441.667
66.100	1487.500
66.120	1487.500
66.140	1570.833
66.160	1600.000
66.180	1745.833
66.200	2075.000
66.220	2329.167
66.240	2670.833
66.260	2870.833
66.280	3366.667
66.300	4166.667
66.320	4966.667
66.340	5662.500
66.360	6133.333
66.380	6204.167
66.400	6462.500
66.420	6300.000
66.440	5987.500
66.460	5308.333
66.480	4966.667
66.500	4883.333
66.520	4737.500
66.540	4533.333
66.560	4491.667
66.580	4354.167
66.600	4112.500
66.620	3720.833
66.640	3220.833
66.660	2737.500
66.680	2412.500
66.700	2175.000
66.720	1829.167
66.740	1758.333
66.760	1612.500
66.780	1520.833
66.800	1437.500
66.820	1358.333
66.840	1220.833
66.860	1204.167
66.880	1325.000
66.900	1354.167
66.920	1279.167
66.940	1250.000
66.960	1150.000
66.980	1100.000
67.000	1020.833
67.020	1100.000
67.040	1062.500
67.060	1162.500
67.080	1195.833
67.100	1216.667
67.120	1195.833
67.140	1129.167
67.160	1116.667
67.180	1150.000
67.200	1154.167
67.220	1212.500
67.240	1170.833
67.260	1233.333
67.280	1204.167
67.300	1275.000
67.320	1287.500
67.340	1391.667
67.360	1445.833
67.380	1445.833
67.400	1583.333
67.420	1616.667
67.440	1737.500
67.460	1725.000
67.480	1825.000
67.500	1904.167
67.520	2041.667
67.540	2162.500
67.560	2316.667
67.580	2516.667
67.600	2604.167
67.620	2850.000
67.640	3025.000
67.660	3225.000
67.680	3679.167
67.700	4020.833
67.720	4558.333
67.740	5195.833
67.760	6245.833
67.780	7304.167
67.800	8720.833
67.820	10487.500
67.840	12750.000
67.860	15416.667
67.880	19200.000
67.900	22479.167
67.920	25541.667
67.940	27870.833
67.960	29533.333
67.980	29191.667
68.000	27620.833
68.020	26025.000
68.040	23666.667
68.060	21645.833
68.080	20212.500
68.100	19633.333
68.120	19470.833
68.140	18691.667
68.160	18162.500
68.180	16433.333
68.200	14583.333
68.220	12883.333
68.240	10804.167
68.260	8779.167
68.280	7279.167
68.300	6212.500
68.320	5158.333
68.340	4616.667
68.360	4004.167
68.380	3362.500
68.400	3100.000
68.420	2720.833
68.440	2500.000
68.460	2416.667
68.480	2283.333
68.500	2012.500
68.520	1941.667
68.540	1995.833
68.560	1887.500
68.580	1820.833
68.600	1845.833
68.620	1862.500
68.640	1825.000
68.660	1783.333
68.680	1837.500
68.700	1966.667
68.720	1937.500
68.740	1887.500
68.760	1979.167
68.780	2129.167
68.800	2379.167
68.820	2525.000
68.840	2737.500
68.860	2987.500
68.880	3137.500
68.900	3637.500
68.920	4170.833
68.940	4983.333
68.960	6033.333
68.980	7179.167
69.000	8745.833
69.020	10158.333
69.040	11816.667
69.060	13612.500
69.080	14345.833
69.100	14779.167
69.120	14504.167
69.140	13808.333
69.160	13020.833
69.180	11862.500
69.200	10733.333
69.220	10441.667
69.240	10408.333
69.260	10220.833
69.280	9658.333
69.300	9437.500
69.320	8558.333
69.340	7654.167
69.360	6916.667
69.380	5870.833
69.400	4858.333
69.420	4200.000
69.440	3508.333
69.460	3037.500
69.480	2516.667
69.500	2287.500
69.520	2129.167
69.540	1879.167
69.560	1708.333
69.580	1566.667
69.600	1520.833
69.620	1404.167
69.640	1329.167
69.660	1245.833
69.680	1237.500
69.700	1137.500
69.720	1133.333
69.740	1175.000
69.760	1033.333
69.780	1050.000
69.800	1070.833
69.820	1004.167
69.840	1004.167
69.860	975.000
69.880	1037.500
69.900	1025.000
69.920	950.000
69.940	900.000
69.960	970.833
69.980	866.667
70.000	800.000
70.020	904.167
70.040	895.833
70.060	866.667
70.080	866.667
70.100	887.500
70.120	829.167
70.140	870.833
70.160	845.833
70.180	829.167
70.200	812.500
70.220	866.667
70.240	858.333
70.260	887.500
70.280	791.667
70.300	850.000
70.320	791.667
70.340	820.833
70.360	808.333
70.380	750.000
70.400	862.500
70.420	808.333
70.440	800.000
70.460	837.500
70.480	816.667
70.500	837.500
70.520	750.000
70.540	741.667
70.560	791.667
70.580	912.500
70.600	820.833
70.620	866.667
70.640	916.667
70.660	920.833
70.680	837.500
70.700	770.833
70.720	820.833
70.740	762.500
70.760	787.500
70.780	812.500
70.800	812.500
70.820	712.500
70.840	750.000
70.860	716.667
70.880	762.500
70.900	783.333
70.920	741.667
70.940	795.833
70.960	779.167
70.980	816.667
71.000	750.000
71.020	687.500
71.040	729.167
71.060	745.833
71.080	679.167
71.100	712.500
71.120	662.500
71.140	800.000
71.160	758.333
71.180	737.500
71.200	737.500
71.220	754.167
71.240	750.000
71.260	783.333
71.280	766.667
71.300	783.333
71.320	779.167
71.340	658.333
71.360	658.333
71.380	691.667
71.400	754.167
71.420	683.333
71.440	629.167
71.460	691.667
71.480	683.333
71.500	729.167
71.520	720.833
71.540	754.167
71.560	766.667
71.580	716.667
71.600	679.167
71.620	595.833
71.640	675.000
71.660	712.500
71.680	829.167
71.700	808.333
71.720	779.167
71.740	662.500
71.760	704.167
71.780	729.167
71.800	658.333
71.820	666.667
71.840	675.000
71.860	683.333
71.880	729.167
71.900	758.333
71.920	675.000
71.940	708.333
71.960	770.833
71.980	804.167
72.000	700.000
72.020	762.500
72.040	716.667
72.060	654.167
72.080	708.333
72.100	854.167
72.120	816.667
72.140	825.000
72.160	754.167
72.180	833.333
72.200	841.667
72.220	883.333
72.240	758.333
72.260	858.333
72.280	945.833
72.300	983.333
72.320	950.000
72.340	1141.667
72.360	1100.000
72.380	1104.167
72.400	1158.333
72.420	1291.667
72.440	1433.333
72.460	1637.500
72.480	1879.167
72.500	1979.167
72.520	2291.667
72.540	2679.167
72.560	2875.000
72.580	2887.500
72.600	2800.000
72.620	2800.000
72.640	2675.000
72.660	2354.167
72.680	2237.500
72.700	2108.333
72.720	2041.667
72.740	2054.167
72.760	1875.000
72.780	1983.333
72.800	1945.833
72.820	1829.167
72.840	1575.000
72.860	1491.667
72.880	1420.833
72.900	1212.500
72.920	1129.167
72.940	1125.000
72.960	925.000
72.980	900.000
73.000	954.167
73.020	800.000
73.040	820.833
73.060	837.500
73.080	816.667
73.100	725.000
73.120	704.167
73.140	804.167
73.160	737.500
73.180	750.000
73.200	775.000
73.220	725.000
73.240	812.500
73.260	754.167
73.280	708.333
73.300	712.500
73.320	687.500
73.340	666.667
73.360	629.167
73.380	662.500
73.400	650.000
73.420	641.667
73.440	708.333
73.460	666.667
73.480	616.667
73.500	633.333
73.520	691.667
73.540	683.333
73.560	720.833
73.580	750.000
73.600	695.833
73.620	666.667
73.640	620.833
73.660	679.167
73.680	654.167
73.700	658.333
73.720	733.333
73.740	691.667
73.760	629.167
73.780	683.333
73.800	716.667
73.820	741.667
73.840	662.500
73.860	687.500
73.880	591.667
73.900	645.833
73.920	625.000
73.940	704.167
73.960	712.500
73.980	654.167
74.000	608.333
74.020	645.833
74.040	729.167
74.060	675.000
74.080	616.667
74.100	687.500
74.120	687.500
74.140	712.500
74.160	637.500
74.180	604.167
74.200	679.167
74.220	666.667
74.240	683.333
74.260	629.167
74.280	641.667
74.300	675.000
74.320	662.500
74.340	641.667
74.360	675.000
74.380	712.500
74.400	695.833
74.420	687.500
74.440	670.833
74.460	670.833
74.480	729.167
74.500	700.000
74.520	637.500
74.540	675.000
74.560	691.667
74.580	650.000
74.600	629.167
74.620	720.833
74.640	725.000
74.660	654.167
74.680	616.667
74.700	633.333
74.720	675.000
74.740	575.000
74.760	645.833
74.780	633.333
74.800	658.333
74.820	700.000
74.840	666.667
74.860	766.667
74.880	741.667
74.900	737.500
74.920	637.500
74.940	612.500
74.960	712.500
74.980	729.167
75.000	737.500
75.020	770.833
75.040	775.000
75.060	683.333
75.080	691.667
75.100	666.667
75.120	683.333
75.140	737.500
75.160	716.667
75.180	670.833
75.200	691.667
75.220	716.667
75.240	662.500
75.260	750.000
75.280	679.167
75.300	725.000
75.320	762.500
75.340	816.667
75.360	716.667
75.380	695.833
75.400	754.167
75.420	720.833
75.440	645.833
75.460	645.833
75.480	658.333
75.500	679.167
75.520	600.000
75.540	608.333
75.560	620.833
75.580	691.667
75.600	645.833
75.620	675.000
75.640	645.833
75.660	600.000
75.680	633.333
75.700	604.167
75.720	566.667
75.740	637.500
75.760	645.833
75.780	637.500
75.800	645.833
75.820	591.667
75.840	612.500
75.860	604.167
75.880	625.000
75.900	645.833
75.920	608.333
75.940	620.833
75.960	633.333
75.980	679.167
76.000	645.833
76.020	587.500
76.040	595.833
76.060	658.333
76.080	654.167
76.100	637.500
76.120	662.500
76.140	687.500
76.160	641.667
76.180	612.500
76.200	641.667
76.220	658.333
76.240	604.167
76.260	587.500
76.280	691.667
76.300	675.000
76.320	741.667
76.340	729.167
76.360	775.000
76.380	679.167
76.400	725.000
76.420	733.333
76.440	758.333
76.460	754.167
76.480	750.000
76.500	808.333
76.520	866.667
76.540	808.333
76.560	870.833
76.580	854.167
76.600	995.833
76.620	962.500
76.640	979.167
76.660	1016.667
76.680	1170.833
76.700	1237.500
76.720	1266.667
76.740	1404.167
76.760	1470.833
76.780	1670.833
76.800	1950.000
76.820	2120.833
76.840	2475.000
76.860	2833.333
76.880	3158.333
76.900	3841.667
76.920	4025.000
76.940	4525.000
76.960	4875.000
76.980	4495.833
77.000	4791.667
77.020	4270.833
77.040	3850.000
77.060	3745.833
77.080	3316.667
77.100	3137.500
77.120	3216.667
77.140	3150.000
77.160	3154.167
77.180	2962.500
77.200	2904.167
77.220	2954.167
77.240	2741.667
77.260	2320.833
77.280	2062.500
77.300	1920.833
77.320	1741.667
77.340	1387.500
77.360	1279.167
77.380	1179.167
77.400	1012.500
77.420	970.833
77.440	900.000
77.460	816.667
77.480	779.167
77.500	804.167
77.520	837.500
77.540	858.333
77.560	691.667
77.580	704.167
77.600	654.167
77.620	695.833
77.640	725.000
77.660	633.333
77.680	695.833
77.700	675.000
77.720	695.833
77.740	612.500
77.760	687.500
77.780	658.333
77.800	683.333
77.820	658.333
77.840	604.167
77.860	566.667
77.880	650.000
77.900	650.000
77.920	650.000
77.940	566.667
77.960	516.667
77.980	625.000
78.000	537.500
78.020	583.333
78.040	604.167
78.060	616.667
78.080	554.167
78.100	675.000
78.120	650.000
78.140	629.167
78.160	600.000
78.180	604.167
78.200	650.000
78.220	629.167
78.240	579.167
78.260	612.500
78.280	620.833
78.300	575.000
78.320	545.833
78.340	550.000
78.360	625.000
78.380	625.000
78.400	533.333
78.420	579.167
78.440	633.333
78.460	591.667
78.480	625.000
78.500	525.000
78.520	516.667
78.540	579.167
78.560	545.833
78.580	591.667
78.600	591.667
78.620	629.167
78.640	633.333
78.660	600.000
78.680	587.500
78.700	541.667
78.720	550.000
78.740	620.833
78.760	587.500
78.780	608.333
78.800	608.333
78.820	500.000
78.840	666.667
78.860	554.167
78.880	475.000
78.900	550.000
78.920	525.000
78.940	604.167
78.960	604.167
78.980	633.333
79.000	712.500
79.020	637.500
79.040	583.333
79.060	608.333
79.080	591.667
79.100	616.667
79.120	612.500
79.140	591.667
79.160	612.500
79.180	633.333
79.200	616.667
79.220	633.333
79.240	625.000
79.260	608.333
79.280	575.000
79.300	566.667
79.320	533.333
79.340	612.500
79.360	579.167
79.380	520.833
79.400	537.500
79.420	595.833
79.440	570.833
79.460	629.167
79.480	520.833
79.500	616.667
79.520	625.000
79.540	558.333
79.560	583.333
79.580	608.333
79.600	591.667
79.620	595.833
79.640	604.167
79.660	558.333
79.680	625.000
79.700	575.000
79.720	575.000
79.740	579.167
79.760	612.500
79.780	533.333
79.800	570.833
79.820	545.833
79.840	600.000
79.860	529.167
79.880	558.333
79.900	620.833
79.920	595.833
79.940	545.833
79.960	633.333
79.980	550.000
80.000	550.000
80.020	629.167
80.040	562.500
80.060	583.333
80.080	562.500
80.100	650.000
80.120	554.167
80.140	570.833
80.160	579.167
80.180	604.167
80.200	550.000
80.220	604.167
80.240	562.500
80.260	575.000
80.280	604.167
80.300	600.000
80.320	508.333
80.340	616.667
80.360	529.167
80.380	554.167
80.400	583.333
80.420	541.667
80.440	558.333
80.460	604.167
80.480	575.000
80.500	625.000
80.520	650.000
80.540	612.500
80.560	625.000
80.580	570.833
80.600	591.667
80.620	620.833
80.640	645.833
80.660	575.000
80.680	641.667
80.700	608.333
80.720	583.333
80.740	570.833
80.760	633.333
80.780	625.000
80.800	637.500
80.820	670.833
80.840	629.167
80.860	658.333
80.880	658.333
80.900	654.167
80.920	687.500
80.940	708.333
80.960	704.167
80.980	616.667
81.000	750.000
81.020	700.000
81.040	741.667
81.060	754.167
81.080	812.500
81.100	858.333
81.120	766.667
81.140	991.667
81.160	987.500
81.180	987.500
81.200	1029.167
81.220	1075.000
81.240	1337.500
81.260	1370.833
81.280	1629.167
81.300	1829.167
81.320	1916.667
81.340	2087.500
81.360	2362.500
81.380	2441.667
81.400	2625.000
81.420	2733.333
81.440	2466.667
81.460	2350.000
81.480	2237.500
81.500	1954.167
81.520	1787.500
81.540	1695.833
81.560	1800.000
81.580	1750.000
81.600	1812.500
81.620	1770.833
81.640	1829.167
81.660	1804.167
81.680	1595.833
81.700	1479.167
81.720	1462.500
81.740	1270.833
81.760	1241.667
81.780	1095.833
81.800	950.000
81.820	820.833
81.840	891.667
81.860	820.833
81.880	858.333
81.900	754.167
81.920	762.500
81.940	741.667
81.960	654.167
81.980	641.667
82.000	641.667
82.020	600.000
82.040	566.667
82.060	604.167
82.080	600.000
82.100	641.667
82.120	641.667
82.140	641.667
82.160	645.833
82.180	612.500
82.200	570.833
82.220	575.000
82.240	550.000
82.260	625.000
82.280	608.333
82.300	629.167
82.320	591.667
82.340	616.667
82.360	554.167
82.380	595.833
82.400	625.000
82.420	604.167
82.440	558.333
82.460	608.333
82.480	545.833
82.500	566.667
82.520	550.000
82.540	595.833
82.560	612.500
82.580	654.167
82.600	583.333
82.620	570.833
82.640	512.500
82.660	583.333
82.680	591.667
82.700	637.500
82.720	520.833
82.740	483.333
82.760	562.500
82.780	525.000
82.800	562.500
82.820	570.833
82.840	575.000
82.860	545.833
82.880	620.833
82.900	554.167
82.920	558.333
82.940	600.000
82.960	562.500
82.980	525.000
83.000	591.667
83.020	566.667
83.040	604.167
83.060	583.333
83.080	554.167
83.100	604.167
83.120	587.500
83.140	533.333
83.160	583.333
83.180	570.833
83.200	612.500
83.220	533.333
83.240	566.667
83.260	608.333
83.280	587.500
83.300	633.333
83.320	666.667
83.340	595.833
83.360	587.500
83.380	495.833
83.400	533.333
83.420	520.833
83.440	545.833
83.460	550.000
83.480	550.000
83.500	579.167
83.520	587.500
83.540	616.667
83.560	562.500
83.580	554.167
83.600	633.333
83.620	658.333
83.640	595.833
83.660	600.000
83.680	662.500
83.700	550.000
83.720	495.833
83.740	612.500
83.760	595.833
83.780	595.833
83.800	537.500
83.820	587.500
83.840	637.500
83.860	600.000
83.880	558.333
83.900	629.167
83.920	562.500
83.940	658.333
83.960	604.167
83.980	608.333
84.000	566.667
84.020	558.333
84.040	533.333
84.060	541.667
84.080	587.500
84.100	575.000
84.120	587.500
84.140	575.000
84.160	587.500
84.180	575.000
84.200	558.333
84.220	495.833
84.240	604.167
84.260	604.167
84.280	512.500
84.300	562.500
84.320	562.500
84.340	516.667
84.360	525.000
84.380	562.500
84.400	529.167
84.420	504.167
84.440	541.667
84.460	550.000
84.480	550.000
84.500	533.333
84.520	495.833
84.540	575.000
84.560	554.167
84.580	541.667
84.600	600.000
84.620	587.500
84.640	641.667
84.660	508.333
84.680	516.667
84.700	550.000
84.720	583.333
84.740	504.167
84.760	600.000
84.780	583.333
84.800	450.000
84.820	504.167
84.840	579.167
84.860	533.333
84.880	541.667
84.900	495.833
84.920	600.000
84.940	541.667
84.960	554.167
84.980	558.333
85.000	437.500
85.020	529.167
85.040	512.500
85.060	575.000
85.080	483.333
85.100	512.500
85.120	587.500
85.140	508.333
85.160	554.167
85.180	587.500
85.200	487.500
85.220	550.000
85.240	608.333
85.260	545.833
85.280	458.333
85.300	529.167
85.320	558.333
85.340	525.000
85.360	537.500
85.380	516.667
85.400	583.333
85.420	579.167
85.440	566.667
85.460	541.667
85.480	533.333
85.500	541.667
85.520	575.000
85.540	541.667
85.560	583.333
85.580	579.167
85.600	570.833
85.620	529.167
85.640	500.000
85.660	466.667
85.680	495.833
85.700	558.333
85.720	558.333
85.740	683.333
85.760	562.500
85.780	516.667
85.800	520.833
85.820	600.000
85.840	525.000
85.860	525.000
85.880	591.667
85.900	575.000
85.920	554.167
85.940	658.333
85.960	620.833
85.980	641.667
86.000	529.167
86.020	558.333
86.040	654.167
86.060	587.500
86.080	616.667
86.100	645.833
86.120	541.667
86.140	591.667
86.160	612.500
86.180	495.833
86.200	512.500
86.220	579.167
86.240	550.000
86.260	491.667
86.280	520.833
86.300	545.833
86.320	579.167
86.340	558.333
86.360	508.333
86.380	575.000
86.400	508.333
86.420	458.333
86.440	545.833
86.460	654.167
86.480	525.000
86.500	608.333
86.520	595.833
86.540	558.333
86.560	583.333
86.580	583.333
86.600	575.000
86.620	575.000
86.640	587.500
86.660	508.333
86.680	650.000
86.700	562.500
86.720	583.333
86.740	608.333
86.760	591.667
86.780	558.333
86.800	591.667
86.820	537.500
86.840	591.667
86.860	633.333
86.880	570.833
86.900	625.000
86.920	583.333
86.940	537.500
86.960	616.667
86.980	629.167
87.000	575.000
87.020	537.500
87.040	550.000
87.060	575.000
87.080	491.667
87.100	516.667
87.120	612.500
87.140	541.667
87.160	600.000
87.180	600.000
87.200	566.667
87.220	604.167
87.240	633.333
87.260	529.167
87.280	587.500
87.300	575.000
87.320	625.000
87.340	675.000
87.360	575.000
87.380	620.833
87.400	591.667
87.420	566.667
87.440	637.500
87.460	600.000
87.480	570.833
87.500	583.333
87.520	620.833
87.540	579.167
87.560	550.000
87.580	541.667
87.600	575.000
87.620	554.167
87.640	591.667
87.660	608.333
87.680	654.167
87.700	545.833
87.720	608.333
87.740	558.333
87.760	591.667
87.780	479.167
87.800	541.667
87.820	595.833
87.840	541.667
87.860	575.000
87.880	641.667
87.900	566.667
87.920	545.833
87.940	516.667
87.960	562.500
87.980	604.167
88.000	612.500
88.020	600.000
88.040	575.000
88.060	587.500
88.080	708.333
88.100	550.000
88.120	566.667
88.140	604.167
88.160	512.500
88.180	520.833
88.200	583.333
88.220	591.667
88.240	520.833
88.260	595.833
88.280	633.333
88.300	637.500
88.320	566.667
88.340	575.000
88.360	516.667
88.380	629.167
88.400	545.833
88.420	616.667
88.440	608.333
88.460	591.667
88.480	612.500
88.500	591.667
88.520	612.500
88.540	700.000
88.560	633.333
88.580	666.667
88.600	695.833
88.620	583.333
88.640	754.167
88.660	600.000
88.680	708.333
88.700	704.167
88.720	662.500
88.740	679.167
88.760	683.333
88.780	725.000
88.800	608.333
88.820	741.667
88.840	704.167
88.860	725.000
88.880	729.167
88.900	795.833
88.920	745.833
88.940	833.333
88.960	733.333
88.980	891.667
89.000	825.000
89.020	929.167
89.040	950.000
89.060	991.667
89.080	945.833
89.100	995.833
89.120	975.000
89.140	1037.500
89.160	1087.500
89.180	1250.000
89.200	1195.833
89.220	1266.667
89.240	1266.667
89.260	1304.167
89.280	1654.167
89.300	1595.833
89.320	1691.667
89.340	1933.333
89.360	2145.833
89.380	2445.833
89.400	2533.333
89.420	3045.833
89.440	3391.667
89.460	3945.833
89.480	4541.667
89.500	5075.000
89.520	5687.500
89.540	6404.167
89.560	7020.833
89.580	7741.667
89.600	8008.333
89.620	8395.833
89.640	8383.333
89.660	7912.500
89.680	7512.500
89.700	6770.833
89.720	6291.667
89.740	5983.333
89.760	5604.167
89.780	4987.500
89.800	5058.333
89.820	5100.000
89.840	5250.000
89.860	5437.500
89.880	5333.333
89.900	5154.167
89.920	5079.167
89.940	5079.167
89.960	5079.167
89.980	5079.167
90.000	5079.167
