5.000	2575.000
5.020	2570.833
5.040	2700.000
5.060	2675.000
5.080	2679.167
5.100	2745.833
5.120	2925.000
5.140	2983.333
5.160	2783.333
5.180	2554.167
5.200	2512.500
5.220	2570.833
5.240	2687.500
5.260	2654.167
5.280	2754.167
5.300	2695.833
5.320	2691.667
5.340	2725.000
5.360	2633.333
5.380	2633.333
5.400	2666.667
5.420	2679.167
5.440	2666.667
5.460	2670.833
5.480	2704.167
5.500	2654.167
5.520	2637.500
5.540	2604.167
5.560	2716.667
5.580	2808.333
5.600	2716.667
5.620	2587.500
5.640	2600.000
5.660	2791.667
5.680	2779.167
5.700	2633.333
5.720	2666.667
5.740	2695.833
5.760	2600.000
5.780	2537.500
5.800	2570.833
5.820	2525.000
5.840	2633.333
5.860	2687.500
5.880	2508.333
5.900	2691.667
5.920	2700.000
5.940	2487.500
5.960	2512.500
5.980	2733.333
6.000	2770.833
6.020	2533.333
6.040	2525.000
6.060	2733.333
6.080	2625.000
6.100	2591.667
6.120	2516.667
6.140	2508.333
6.160	2562.500
6.180	2479.167
6.200	2404.167
6.220	2570.833
6.240	2637.500
6.260	2600.000
6.280	2541.667
6.300	2570.833
6.320	2620.833
6.340	2708.333
6.360	2637.500
6.380	2670.833
6.400	2704.167
6.420	2562.500
6.440	2495.833
6.460	2483.333
6.480	2487.500
6.500	2575.000
6.520	2608.333
6.540	2554.167
6.560	2483.333
6.580	2683.333
6.600	2683.333
6.620	2562.500
6.640	2554.167
6.660	2537.500
6.680	2558.333
6.700	2637.500
6.720	2679.167
6.740	2587.500
6.760	2600.000
6.780	2566.667
6.800	2591.667
6.820	2708.333
6.840	2645.833
6.860	2508.333
6.880	2533.333
6.900	2595.833
6.920	2450.000
6.940	2508.333
6.960	2554.167
6.980	2658.333
7.000	2616.667
7.020	2550.000
7.040	2504.167
7.060	2579.167
7.080	2537.500
7.100	2591.667
7.120	2683.333
7.140	2541.667
7.160	2487.500
7.180	2616.667
7.200	2633.333
7.220	2558.333
7.240	2520.833
7.260	2537.500
7.280	2583.333
7.300	2537.500
7.320	2545.833
7.340	2533.333
7.360	2437.500
7.380	2583.333
7.400	2583.333
7.420	2537.500
7.440	2454.167
7.460	2429.167
7.480	2512.500
7.500	2600.000
7.520	2570.833
7.540	2508.333
7.560	2466.667
7.580	2437.500
7.600	2483.333
7.620	2441.667
7.640	2512.500
7.660	2591.667
7.680	2687.500
7.700	2495.833
7.720	2450.000
7.740	2229.167
7.760	2212.500
7.780	2379.167
7.800	2470.833
7.820	2550.000
7.840	2650.000
7.860	2591.667
7.880	2554.167
7.900	2483.333
7.920	2487.500
7.940	2462.500
7.960	2491.667
7.980	2608.333
8.000	2550.000
8.020	2445.833
8.040	2541.667
8.060	2404.167
8.080	2404.167
8.100	2516.667
8.120	2516.667
8.140	2520.833
8.160	2491.667
8.180	2554.167
8.200	2500.000
8.220	2491.667
8.240	2558.333
8.260	2525.000
8.280	2466.667
8.300	2395.833
8.320	2329.167
8.340	2275.000
8.360	2429.167
8.380	2508.333
8.400	2362.500
8.420	2391.667
8.440	2491.667
8.460	2333.333
8.480	2200.000
8.500	2258.333
8.520	2508.333
8.540	2491.667
8.560	2350.000
8.580	2241.667
8.600	2370.833
8.620	2325.000
8.640	2283.333
8.660	2337.500
8.680	2391.667
8.700	2204.167
8.720	2212.500
8.740	2241.667
8.760	2208.333
8.780	2391.667
8.800	2416.667
8.820	2416.667
8.840	2416.667
8.860	2483.333
8.880	2491.667
8.900	2387.500
8.920	2441.667
8.940	2508.333
8.960	2487.500
8.980	2350.000
9.000	2325.000
9.020	2362.500
9.040	2354.167
9.060	2412.500
9.080	2366.667
9.100	2295.833
9.120	2333.333
9.140	2412.500
9.160	2454.167
9.180	2500.000
9.200	2383.333
9.220	2479.167
9.240	2525.000
9.260	2412.500
9.280	2475.000
9.300	2462.500
9.320	2416.667
9.340	2325.000
9.360	2329.167
9.380	2366.667
9.400	2437.500
9.420	2358.333
9.440	2495.833
9.460	2516.667
9.480	2416.667
9.500	2362.500
9.520	2408.333
9.540	2370.833
9.560	2383.333
9.580	2462.500
9.600	2520.833
9.620	2429.167
9.640	2458.333
9.660	2420.833
9.680	2354.167
9.700	2375.000
9.720	2395.833
9.740	2437.500
9.760	2466.667
9.780	2341.667
9.800	2395.833
9.820	2358.333
9.840	2370.833
9.860	2333.333
9.880	2316.667
9.900	2408.333
9.920	2404.167
9.940	2300.000
9.960	2220.833
9.980	2362.500
10.000	2445.833
10.020	2420.833
10.040	2358.333
10.060	2320.833
10.080	2429.167
10.100	2508.333
10.120	2487.500
10.140	2404.167
10.160	2425.000
10.180	2408.333
10.200	2345.833
10.220	2337.500
10.240	2441.667
10.260	2416.667
10.280	2495.833
10.300	2479.167
10.320	2395.833
10.340	2362.500
10.360	2383.333
10.380	2508.333
10.400	2562.500
10.420	2520.833
10.440	2508.333
10.460	2575.000
10.480	2520.833
10.500	2525.000
10.520	2429.167
10.540	2433.333
10.560	2412.500
10.580	2341.667
10.600	2412.500
10.620	2458.333
10.640	2458.333
10.660	2537.500
10.680	2500.000
10.700	2525.000
10.720	2629.167
10.740	2541.667
10.760	2429.167
10.780	2325.000
10.800	2425.000
10.820	2554.167
10.840	2516.667
10.860	2525.000
10.880	2579.167
10.900	2504.167
10.920	2500.000
10.940	2562.500
10.960	2491.667
10.980	2566.667
11.000	2541.667
11.020	2470.833
11.040	2487.500
11.060	2533.333
11.080	2508.333
11.100	2495.833
11.120	2475.000
11.140	2483.333
11.160	2450.000
11.180	2425.000
11.200	2554.167
11.220	2645.833
11.240	2429.167
11.260	2495.833
11.280	2575.000
11.300	2545.833
11.320	2566.667
11.340	2583.333
11.360	2541.667
11.380	2537.500
11.400	2579.167
11.420	2687.500
11.440	2625.000
11.460	2562.500
11.480	2620.833
11.500	2629.167
11.520	2562.500
11.540	2529.167
11.560	2625.000
11.580	2700.000
11.600	2870.833
11.620	2720.833
11.640	2554.167
11.660	2562.500
11.680	2608.333
11.700	2620.833
11.720	2608.333
11.740	2541.667
11.760	2508.333
11.780	2595.833
11.800	2637.500
11.820	2558.333
11.840	2533.333
11.860	2654.167
11.880	2708.333
11.900	2700.000
11.920	2695.833
11.940	2570.833
11.960	2525.000
11.980	2570.833
12.000	2683.333
12.020	2708.333
12.040	2666.667
12.060	2587.500
12.080	2637.500
12.100	2841.667
12.120	2741.667
12.140	2683.333
12.160	2741.667
12.180	2775.000
12.200	2729.167
12.220	2670.833
12.240	2633.333
12.260	2641.667
12.280	2754.167
12.300	2708.333
12.320	2766.667
12.340	2754.167
12.360	2600.000
12.380	2641.667
12.400	2758.333
12.420	2770.833
12.440	2808.333
12.460	2683.333
12.480	2620.833
12.500	2783.333
12.520	2812.500
12.540	2787.500
12.560	2654.167
12.580	2733.333
12.600	2712.500
12.620	2754.167
12.640	2666.667
12.660	2666.667
12.680	2816.667
12.700	2791.667
12.720	2833.333
12.740	2691.667
12.760	2670.833
12.780	2683.333
12.800	2641.667
12.820	2637.500
12.840	2700.000
12.860	2825.000
12.880	2854.167
12.900	2720.833
12.920	2720.833
12.940	2800.000
12.960	2895.833
12.980	2866.667
13.000	2675.000
13.020	2583.333
13.040	2720.833
13.060	2716.667
13.080	2850.000
13.100	2829.167
13.120	2754.167
13.140	2829.167
13.160	2737.500
13.180	2687.500
13.200	2762.500
13.220	2891.667
13.240	2929.167
13.260	2929.167
13.280	2870.833
13.300	2795.833
13.320	2808.333
13.340	2804.167
13.360	2754.167
13.380	2716.667
13.400	2770.833
13.420	2800.000
13.440	2983.333
13.460	2862.500
13.480	2829.167
13.500	2854.167
13.520	2858.333
13.540	2825.000
13.560	2850.000
13.580	2916.667
13.600	2825.000
13.620	2912.500
13.640	2970.833
13.660	2891.667
13.680	2858.333
13.700	2933.333
13.720	2895.833
13.740	2912.500
13.760	2866.667
13.780	2758.333
13.800	2816.667
13.820	2833.333
13.840	2887.500
13.860	2937.500
13.880	2995.833
13.900	2966.667
13.920	3012.500
13.940	2975.000
13.960	2895.833
13.980	2945.833
14.000	2912.500
14.020	2812.500
14.040	2858.333
14.060	2904.167
14.080	2904.167
14.100	2987.500
14.120	3116.667
14.140	2987.500
14.160	2954.167
14.180	3112.500
14.200	3062.500
14.220	3016.667
14.240	3016.667
14.260	3116.667
14.280	3016.667
14.300	3091.667
14.320	3104.167
14.340	3004.167
14.360	3075.000
14.380	3158.333
14.400	3008.333
14.420	3083.333
14.440	3137.500
14.460	3191.667
14.480	3354.167
14.500	3354.167
14.520	3495.833
14.540	3558.333
14.560	3512.500
14.580	3362.500
14.600	3287.500
14.620	3137.500
14.640	3241.667
14.660	3283.333
14.680	3166.667
14.700	3095.833
14.720	3054.167
14.740	3029.167
14.760	3145.833
14.780	3241.667
14.800	3237.500
14.820	3191.667
14.840	3166.667
14.860	3108.333
14.880	3187.500
14.900	3175.000
14.920	3316.667
14.940	3337.500
14.960	3287.500
14.980	3333.333
15.000	3366.667
15.020	3391.667
15.040	3383.333
15.060	3487.500
15.080	3358.333
15.100	3329.167
15.120	3587.500
15.140	3629.167
15.160	3470.833
15.180	3579.167
15.200	3625.000
15.220	3625.000
15.240	3645.833
15.260	3733.333
15.280	3795.833
15.300	3929.167
15.320	4029.167
15.340	4137.500
15.360	4254.167
15.380	4175.000
15.400	4287.500
15.420	4500.000
15.440	4391.667
15.460	4495.833
15.480	4925.000
15.500	5862.500
15.520	7345.833
15.540	9741.667
15.560	13012.500
15.580	16237.500
15.600	19225.000
15.620	21529.167
15.640	23237.500
15.660	24595.833
15.680	25554.167
15.700	26162.500
15.720	26837.500
15.740	27195.833
15.760	27916.667
15.780	27850.000
15.800	27995.833
15.820	28454.167
15.840	28833.333
15.860	29262.500
15.880	30287.500
15.900	32712.500
15.920	35258.333
15.940	39112.500
15.960	48300.000
15.980	67604.167
16.000	113408.333
16.020	230104.167
16.040	534645.833
16.060	1167070.833
16.080	1997750.000
16.100	2630670.833
16.120	2798291.667
16.140	2408841.667
16.160	1698062.500
16.180	1015295.833
16.200	518679.167
16.220	241408.333
16.240	118275.000
16.260	69420.833
16.280	49641.667
16.300	40912.500
16.320	36291.667
16.340	33395.833
16.360	30687.500
16.380	29170.833
16.400	27737.500
16.420	26204.167
16.440	24966.667
16.460	23433.333
16.480	22100.000
16.500	20625.000
16.520	19120.833
16.540	17412.500
16.560	15954.167
16.580	15037.500
16.600	14341.667
16.620	13858.333
16.640	13645.833
16.660	13616.667
16.680	13300.000
16.700	13158.333
16.720	12950.000
16.740	12562.500
16.760	12462.500
16.780	12366.667
16.800	12141.667
16.820	12175.000
16.840	11954.167
16.860	11829.167
16.880	11829.167
16.900	11408.333
16.920	11241.667
16.940	10995.833
16.960	10745.833
16.980	10650.000
17.000	10579.167
17.020	10412.500
17.040	10125.000
17.060	10204.167
17.080	10075.000
17.100	10145.833
17.120	10108.333
17.140	10004.167
17.160	9937.500
17.180	10087.500
17.200	9845.833
17.220	9670.833
17.240	9729.167
17.260	9520.833
17.280	9341.667
17.300	9225.000
17.320	9554.167
17.340	9704.167
17.360	9395.833
17.380	9287.500
17.400	9345.833
17.420	9079.167
17.440	8958.333
17.460	8975.000
17.480	9050.000
17.500	9087.500
17.520	8987.500
17.540	8850.000
17.560	8637.500
17.580	8791.667
17.600	8895.833
17.620	8633.333
17.640	8379.167
17.660	8345.833
17.680	8416.667
17.700	8320.833
17.720	8320.833
17.740	8395.833
17.760	8195.833
17.780	7987.500
17.800	7925.000
17.820	7562.500
17.840	7570.833
17.860	7808.333
17.880	7762.500
17.900	7616.667
17.920	7633.333
17.940	7583.333
17.960	7583.333
17.980	7450.000
18.000	7483.333
18.020	7379.167
18.040	7362.500
18.060	7354.167
18.080	7162.500
18.100	7183.333
18.120	7350.000
18.140	7304.167
18.160	7275.000
18.180	7333.333
18.200	7220.833
18.220	7137.500
18.240	7175.000
18.260	7029.167
18.280	7116.667
18.300	7141.667
18.320	7175.000
18.340	7225.000
18.360	7254.167
18.380	7100.000
18.400	7033.333
18.420	7100.000
18.440	7170.833
18.460	6879.167
18.480	6808.333
18.500	6737.500
18.520	6787.500
18.540	6729.167
18.560	6716.667
18.580	6641.667
18.600	6579.167
18.620	6616.667
18.640	6616.667
18.660	6625.000
18.680	6570.833
18.700	6458.333
18.720	6291.667
18.740	6412.500
18.760	6504.167
18.780	6475.000
18.800	6254.167
18.820	6045.833
18.840	6108.333
18.860	6237.500
18.880	6050.000
18.900	5962.500
18.920	6170.833
18.940	6133.333
18.960	6141.667
18.980	6066.667
19.000	6066.667
19.020	6095.833
19.040	5883.333
19.060	5870.833
19.080	5837.500
19.100	5887.500
19.120	5779.167
19.140	5700.000
19.160	5820.833
19.180	5883.333
19.200	5845.833
19.220	5854.167
19.240	5666.667
19.260	5620.833
19.280	5487.500
19.300	5662.500
19.320	5620.833
19.340	5579.167
19.360	5495.833
19.380	5400.000
19.400	5379.167
19.420	5270.833
19.440	5379.167
19.460	5408.333
19.480	5325.000
19.500	5404.167
19.520	5366.667
19.540	5300.000
19.560	5437.500
19.580	5333.333
19.600	5287.500
19.620	5366.667
19.640	5216.667
19.660	5179.167
19.680	5350.000
19.700	5325.000
19.720	5337.500
19.740	5079.167
19.760	4783.333
19.780	4962.500
19.800	5045.833
19.820	5029.167
19.840	4987.500
19.860	4941.667
19.880	4954.167
19.900	4891.667
19.920	4937.500
19.940	5066.667
19.960	4937.500
19.980	4858.333
20.000	5020.833
20.020	5050.000
20.040	4779.167
20.060	4875.000
20.080	4837.500
20.100	4929.167
20.120	5037.500
20.140	4787.500
20.160	4641.667
20.180	4629.167
20.200	4741.667
20.220	4804.167
20.240	4754.167
20.260	4945.833
20.280	5129.167
20.300	5025.000
20.320	5104.167
20.340	4841.667
20.360	4662.500
20.380	4633.333
20.400	4491.667
20.420	4429.167
20.440	4462.500
20.460	4533.333
20.480	4508.333
20.500	4387.500
20.520	4295.833
20.540	4308.333
20.560	4608.333
20.580	4658.333
20.600	4604.167
20.620	4595.833
20.640	4504.167
20.660	4658.333
20.680	4562.500
20.700	4458.333
20.720	4770.833
20.740	5029.167
20.760	4987.500
20.780	4841.667
20.800	4895.833
20.820	4995.833
20.840	5083.333
20.860	5187.500
20.880	5016.667
20.900	4800.000
20.920	4787.500
20.940	4666.667
20.960	4691.667
20.980	4641.667
21.000	4516.667
21.020	4437.500
21.040	4358.333
21.060	4558.333
21.080	4529.167
21.100	4700.000
21.120	4866.667
21.140	4950.000
21.160	5079.167
21.180	5191.667
21.200	5200.000
21.220	5312.500
21.240	5266.667
21.260	5245.833
21.280	5070.833
21.300	5108.333
21.320	5391.667
21.340	5587.500
21.360	5687.500
21.380	5750.000
21.400	5870.833
21.420	6012.500
21.440	6133.333
21.460	6254.167
21.480	6375.000
21.500	6454.167
21.520	6483.333
21.540	6416.667
21.560	6516.667
21.580	6720.833
21.600	6912.500
21.620	7120.833
21.640	7179.167
21.660	7254.167
21.680	7508.333
21.700	8200.000
21.720	9175.000
21.740	10770.833
21.760	14604.167
21.780	23350.000
21.800	43133.333
21.820	80712.500
21.840	132166.667
21.860	178575.000
21.880	205495.833
21.900	216520.833
21.920	211325.000
21.940	182083.333
21.960	137879.167
21.980	97254.167
22.000	64437.500
22.020	38562.500
22.040	22154.167
22.060	13775.000
22.080	9950.000
22.100	8550.000
22.120	7816.667
22.140	7366.667
22.160	7037.500
22.180	6958.333
22.200	6695.833
22.220	6654.167
22.240	6462.500
22.260	6208.333
22.280	6020.833
22.300	5766.667
22.320	5333.333
22.340	5166.667
22.360	5141.667
22.380	5079.167
22.400	5000.000
22.420	4837.500
22.440	4820.833
22.460	4900.000
22.480	4966.667
22.500	4933.333
22.520	4954.167
22.540	4783.333
22.560	4583.333
22.580	4591.667
22.600	4658.333
22.620	4745.833
22.640	4683.333
22.660	4554.167
22.680	4570.833
22.700	4629.167
22.720	4591.667
22.740	4591.667
22.760	4637.500
22.780	4537.500
22.800	4529.167
22.820	4466.667
22.840	4604.167
22.860	4679.167
22.880	4541.667
22.900	4458.333
22.920	4412.500
22.940	4329.167
22.960	4300.000
22.980	4362.500
23.000	4500.000
23.020	4516.667
23.040	4595.833
23.060	4595.833
23.080	4616.667
23.100	4520.833
23.120	4408.333
23.140	4400.000
23.160	4383.333
23.180	4400.000
23.200	4445.833
23.220	4350.000
23.240	4341.667
23.260	4504.167
23.280	4554.167
23.300	4391.667
23.320	4383.333
23.340	4454.167
23.360	4337.500
23.380	4320.833
23.400	4329.167
23.420	4158.333
23.440	4258.333
23.460	4333.333
23.480	4308.333
23.500	4450.000
23.520	4450.000
23.540	4425.000
23.560	4458.333
23.580	4404.167
23.600	4395.833
23.620	4520.833
23.640	4379.167
23.660	4441.667
23.680	4445.833
23.700	4308.333
23.720	4287.500
23.740	4300.000
23.760	4287.500
23.780	4350.000
23.800	4362.500
23.820	4429.167
23.840	4479.167
23.860	4750.000
23.880	4883.333
23.900	5120.833
23.920	5220.833
23.940	5133.333
23.960	5095.833
23.980	5062.500
24.000	4745.833
24.020	4587.500
24.040	4479.167
24.060	4270.833
24.080	4291.667
24.100	4250.000
24.120	4320.833
24.140	4308.333
24.160	4208.333
24.180	4295.833
24.200	4287.500
24.220	4266.667
24.240	4208.333
24.260	4220.833
24.280	4154.167
24.300	4083.333
24.320	4100.000
24.340	4141.667
24.360	4108.333
24.380	4100.000
24.400	4075.000
24.420	4141.667
24.440	4233.333
24.460	4225.000
24.480	4266.667
24.500	4154.167
24.520	4062.500
24.540	4254.167
24.560	4258.333
24.580	4158.333
24.600	4225.000
24.620	4133.333
24.640	4125.000
24.660	4129.167
24.680	4191.667
24.700	4179.167
24.720	4195.833
24.740	4225.000
24.760	4162.500
24.780	4091.667
24.800	4204.167
24.820	4308.333
24.840	4279.167
24.860	4087.500
24.880	4033.333
24.900	4116.667
24.920	4125.000
24.940	4154.167
24.960	4091.667
24.980	4133.333
25.000	4191.667
25.020	4295.833
25.040	4237.500
25.060	4166.667
25.080	4200.000
25.100	4300.000
25.120	4358.333
25.140	4320.833
25.160	4179.167
25.180	4179.167
25.200	4250.000
25.220	4116.667
25.240	4087.500
25.260	4220.833
25.280	4300.000
25.300	4237.500
25.320	4162.500
25.340	4075.000
25.360	4191.667
25.380	4320.833
25.400	4329.167
25.420	4204.167
25.440	4104.167
25.460	4125.000
25.480	4204.167
25.500	4187.500
25.520	4254.167
25.540	4229.167
25.560	4175.000
25.580	4150.000
25.600	4179.167
25.620	4212.500
25.640	4187.500
25.660	4170.833
25.680	4204.167
25.700	4329.167
25.720	4416.667
25.740	4395.833
25.760	4241.667
25.780	4300.000
25.800	4316.667
25.820	4354.167
25.840	4445.833
25.860	4379.167
25.880	4441.667
25.900	4537.500
25.920	4479.167
25.940	4325.000
25.960	4350.000
25.980	4450.000
26.000	4583.333
26.020	4545.833
26.040	4508.333
26.060	4533.333
26.080	4383.333
26.100	4295.833
26.120	4241.667
26.140	4254.167
26.160	4379.167
26.180	4391.667
26.200	4475.000
26.220	4387.500
26.240	4370.833
26.260	4479.167
26.280	4533.333
26.300	4504.167
26.320	4383.333
26.340	4525.000
26.360	4783.333
26.380	4604.167
26.400	4558.333
26.420	4641.667
26.440	4750.000
26.460	4691.667
26.480	4712.500
26.500	4800.000
26.520	4700.000
26.540	4687.500
26.560	4591.667
26.580	4533.333
26.600	4550.000
26.620	4475.000
26.640	4304.167
26.660	4220.833
26.680	4212.500
26.700	4258.333
26.720	4250.000
26.740	4283.333
26.760	4408.333
26.780	4308.333
26.800	4154.167
26.820	4120.833
26.840	4166.667
26.860	4237.500
26.880	4266.667
26.900	4229.167
26.920	4266.667
26.940	4233.333
26.960	4270.833
26.980	4400.000
27.000	4337.500
27.020	4154.167
27.040	4312.500
27.060	4295.833
27.080	4141.667
27.100	4150.000
27.120	4183.333
27.140	4275.000
27.160	4304.167
27.180	4275.000
27.200	4262.500
27.220	4266.667
27.240	4270.833
27.260	4258.333
27.280	4220.833
27.300	4254.167
27.320	4204.167
27.340	4133.333
27.360	4275.000
27.380	4370.833
27.400	4333.333
27.420	4216.667
27.440	4158.333
27.460	4258.333
27.480	4362.500
27.500	4254.167
27.520	4054.167
27.540	4108.333
27.560	4166.667
27.580	4304.167
27.600	4358.333
27.620	4204.167
27.640	4062.500
27.660	4137.500
27.680	4250.000
27.700	4229.167
27.720	4308.333
27.740	4337.500
27.760	4337.500
27.780	4195.833
27.800	4212.500
27.820	4287.500
27.840	4137.500
27.860	4091.667
27.880	4179.167
27.900	4245.833
27.920	4262.500
27.940	4279.167
27.960	4208.333
27.980	4170.833
28.000	4329.167
28.020	4212.500
28.040	4025.000
28.060	4212.500
28.080	4250.000
28.100	4220.833
28.120	4379.167
28.140	4425.000
28.160	4425.000
28.180	4445.833
28.200	4395.833
28.220	4441.667
28.240	4358.333
28.260	4175.000
28.280	4341.667
28.300	4391.667
28.320	4279.167
28.340	4275.000
28.360	4387.500
28.380	4425.000
28.400	4633.333
28.420	4787.500
28.440	4858.333
28.460	5125.000
28.480	5191.667
28.500	4950.000
28.520	4745.833
28.540	4675.000
28.560	4516.667
28.580	4391.667
28.600	4387.500
28.620	4358.333
28.640	4425.000
28.660	4370.833
28.680	4370.833
28.700	4487.500
28.720	4516.667
28.740	4558.333
28.760	4570.833
28.780	4637.500
28.800	4641.667
28.820	4616.667
28.840	4666.667
28.860	4562.500
28.880	4525.000
28.900	4541.667
28.920	4404.167
28.940	4400.000
28.960	4387.500
28.980	4370.833
29.000	4383.333
29.020	4287.500
29.040	4329.167
29.060	4350.000
29.080	4400.000
29.100	4354.167
29.120	4237.500
29.140	4220.833
29.160	4291.667
29.180	4366.667
29.200	4304.167
29.220	4295.833
29.240	4445.833
29.260	4312.500
29.280	4137.500
29.300	4125.000
29.320	4212.500
29.340	4350.000
29.360	4450.000
29.380	4495.833
29.400	4425.000
29.420	4379.167
29.440	4354.167
29.460	4395.833
29.480	4316.667
29.500	4304.167
29.520	4379.167
29.540	4283.333
29.560	4220.833
29.580	4341.667
29.600	4395.833
29.620	4325.000
29.640	4291.667
29.660	4279.167
29.680	4466.667
29.700	4450.000
29.720	4341.667
29.740	4408.333
29.760	4283.333
29.780	4241.667
29.800	4316.667
29.820	4400.000
29.840	4295.833
29.860	4133.333
29.880	4179.167
29.900	4287.500
29.920	4329.167
29.940	4325.000
29.960	4341.667
29.980	4279.167
30.000	4262.500
30.020	4425.000
30.040	4470.833
30.060	4458.333
30.080	4466.667
30.100	4350.000
30.120	4204.167
30.140	4229.167
30.160	4408.333
30.180	4400.000
30.200	4300.000
30.220	4333.333
30.240	4341.667
30.260	4245.833
30.280	4250.000
30.300	4337.500
30.320	4325.000
30.340	4316.667
30.360	4279.167
30.380	4354.167
30.400	4545.833
30.420	4545.833
30.440	4495.833
30.460	4508.333
30.480	4508.333
30.500	4587.500
30.520	4650.000
30.540	4712.500
30.560	4620.833
30.580	4579.167
30.600	4733.333
30.620	4625.000
30.640	4587.500
30.660	4733.333
30.680	4783.333
30.700	4850.000
30.720	4920.833
30.740	4950.000
30.760	4991.667
30.780	5058.333
30.800	5133.333
30.820	5241.667
30.840	5195.833
30.860	5212.500
30.880	5337.500
30.900	5241.667
30.920	5216.667
30.940	5275.000
30.960	5212.500
30.980	5300.000
31.000	5504.167
31.020	5575.000
31.040	5595.833
31.060	5616.667
31.080	5670.833
31.100	5720.833
31.120	5879.167
31.140	6095.833
31.160	6137.500
31.180	6258.333
31.200	6375.000
31.220	6508.333
31.240	6604.167
31.260	6729.167
31.280	7000.000
31.300	7266.667
31.320	7362.500
31.340	7525.000
31.360	7791.667
31.380	7891.667
31.400	7912.500
31.420	7904.167
31.440	7916.667
31.460	7708.333
31.480	7695.833
31.500	7837.500
31.520	7687.500
31.540	7379.167
31.560	7200.000
31.580	7258.333
31.600	7300.000
31.620	6962.500
31.640	6837.500
31.660	6933.333
31.680	6875.000
31.700	6912.500
31.720	6658.333
31.740	6383.333
31.760	6445.833
31.780	6541.667
31.800	6570.833
31.820	6520.833
31.840	6608.333
31.860	6633.333
31.880	6525.000
31.900	6604.167
31.920	6716.667
31.940	6729.167
31.960	6812.500
31.980	6958.333
32.000	6975.000
32.020	7179.167
32.040	7225.000
32.060	7416.667
32.080	7754.167
32.100	8087.500
32.120	8475.000
32.140	8729.167
32.160	9029.167
32.180	9183.333
32.200	9383.333
32.220	9691.667
32.240	9795.833
32.260	9850.000
32.280	9916.667
32.300	9862.500
32.320	9887.500
32.340	9933.333
32.360	9933.333
32.380	9866.667
32.400	10079.167
32.420	10687.500
32.440	11450.000
32.460	12195.833
32.480	13054.167
32.500	14545.833
32.520	17191.667
32.540	23237.500
32.560	38904.167
32.580	74266.667
32.600	134379.167
32.620	205166.667
32.640	254054.167
32.660	258095.833
32.680	226408.333
32.700	189020.833
32.720	163566.667
32.740	140654.167
32.760	105612.500
32.780	65545.833
32.800	36479.167
32.820	20825.000
32.840	14170.833
32.860	11483.333
32.880	10195.833
32.900	9366.667
32.920	8770.833
32.940	8395.833
32.960	8212.500
32.980	7970.833
33.000	7608.333
33.020	7395.833
33.040	7250.000
33.060	7095.833
33.080	6816.667
33.100	6575.000
33.120	6529.167
33.140	6366.667
33.160	6045.833
33.180	5895.833
33.200	5716.667
33.220	5725.000
33.240	5712.500
33.260	5591.667
33.280	5608.333
33.300	5612.500
33.320	5662.500
33.340	5666.667
33.360	5558.333
33.380	5504.167
33.400	5479.167
33.420	5458.333
33.440	5508.333
33.460	5491.667
33.480	5333.333
33.500	5216.667
33.520	5183.333
33.540	5204.167
33.560	5366.667
33.580	5454.167
33.600	5404.167
33.620	5262.500
33.640	5145.833
33.660	5195.833
33.680	5316.667
33.700	5350.000
33.720	5466.667
33.740	5395.833
33.760	5116.667
33.780	5070.833
33.800	5150.000
33.820	5300.000
33.840	5404.167
33.860	5637.500
33.880	5916.667
33.900	5987.500
33.920	5900.000
33.940	5658.333
33.960	5666.667
33.980	5758.333
34.000	5645.833
34.020	5445.833
34.040	5250.000
34.060	5104.167
34.080	5029.167
34.100	5062.500
34.120	5150.000
34.140	5091.667
34.160	4983.333
34.180	5037.500
34.200	5162.500
34.220	5162.500
34.240	5229.167
34.260	5287.500
34.280	5212.500
34.300	5170.833
34.320	5158.333
34.340	5166.667
34.360	5295.833
34.380	5375.000
34.400	5266.667
34.420	5300.000
34.440	5345.833
34.460	5295.833
34.480	5320.833
34.500	5175.000
34.520	5170.833
34.540	5066.667
34.560	5091.667
34.580	5300.000
34.600	5433.333
34.620	5612.500
34.640	5583.333
34.660	5683.333
34.680	5866.667
34.700	5837.500
34.720	5837.500
34.740	5754.167
34.760	5787.500
34.780	5633.333
34.800	5575.000
34.820	5679.167
34.840	5720.833
34.860	5745.833
34.880	5725.000
34.900	5816.667
34.920	5950.000
34.940	5875.000
34.960	5879.167
34.980	5966.667
35.000	6116.667
35.020	6254.167
35.040	6220.833
35.060	6062.500
35.080	6270.833
35.100	6433.333
35.120	6558.333
35.140	6595.833
35.160	6762.500
35.180	6945.833
35.200	7445.833
35.220	8391.667
35.240	10441.667
35.260	14270.833
35.280	19041.667
35.300	22533.333
35.320	23020.833
35.340	22654.167
35.360	22258.333
35.380	20887.500
35.400	18750.000
35.420	16487.500
35.440	14812.500
35.460	13420.833
35.480	11637.500
35.500	10429.167
35.520	10016.667
35.540	9858.333
35.560	9633.333
35.580	9112.500
35.600	9208.333
35.620	9200.000
35.640	8820.833
35.660	8570.833
35.680	8400.000
35.700	8233.333
35.720	8091.667
35.740	7991.667
35.760	7745.833
35.780	7387.500
35.800	7229.167
35.820	7054.167
35.840	6816.667
35.860	6708.333
35.880	6650.000
35.900	6591.667
35.920	6458.333
35.940	6308.333
35.960	6300.000
35.980	6316.667
36.000	6145.833
36.020	6091.667
36.040	5945.833
36.060	5904.167
36.080	6037.500
36.100	5950.000
36.120	5804.167
36.140	5745.833
36.160	5662.500
36.180	5395.833
36.200	5191.667
36.220	5195.833
36.240	5200.000
36.260	5200.000
36.280	5320.833
36.300	5304.167
36.320	5129.167
36.340	5141.667
36.360	5075.000
36.380	5125.000
36.400	5200.000
36.420	5120.833
36.440	5000.000
36.460	4875.000
36.480	4916.667
36.500	4954.167
36.520	4829.167
36.540	4787.500
36.560	4820.833
36.580	4975.000
36.600	5062.500
36.620	4912.500
36.640	4808.333
36.660	4750.000
36.680	4833.333
36.700	4766.667
36.720	4654.167
36.740	4679.167
36.760	4766.667
36.780	4912.500
36.800	4891.667
36.820	4787.500
36.840	4616.667
36.860	4683.333
36.880	4670.833
36.900	4554.167
36.920	4695.833
36.940	4675.000
36.960	4708.333
36.980	4687.500
37.000	4650.000
37.020	4683.333
37.040	4570.833
37.060	4587.500
37.080	4620.833
37.100	4554.167
37.120	4341.667
37.140	4391.667
37.160	4450.000
37.180	4533.333
37.200	4579.167
37.220	4520.833
37.240	4487.500
37.260	4479.167
37.280	4529.167
37.300	4579.167
37.320	4500.000
37.340	4333.333
37.360	4441.667
37.380	4591.667
37.400	4562.500
37.420	4600.000
37.440	4529.167
37.460	4600.000
37.480	4637.500
37.500	4504.167
37.520	4420.833
37.540	4470.833
37.560	4425.000
37.580	4262.500
37.600	4254.167
37.620	4370.833
37.640	4350.000
37.660	4283.333
37.680	4366.667
37.700	4383.333
37.720	4420.833
37.740	4483.333
37.760	4387.500
37.780	4320.833
37.800	4445.833
37.820	4412.500
37.840	4420.833
37.860	4600.000
37.880	4775.000
37.900	4891.667
37.920	5112.500
37.940	5458.333
37.960	5737.500
37.980	5612.500
38.000	5516.667
38.020	5545.833
38.040	5583.333
38.060	5412.500
38.080	5216.667
38.100	4920.833
38.120	4745.833
38.140	4662.500
38.160	4595.833
38.180	4416.667
38.200	4320.833
38.220	4254.167
38.240	4195.833
38.260	4275.000
38.280	4354.167
38.300	4416.667
38.320	4379.167
38.340	4479.167
38.360	4558.333
38.380	4433.333
38.400	4300.000
38.420	4337.500
38.440	4350.000
38.460	4316.667
38.480	4270.833
38.500	4262.500
38.520	4300.000
38.540	4183.333
38.560	4241.667
38.580	4412.500
38.600	4383.333
38.620	4354.167
38.640	4316.667
38.660	4337.500
38.680	4325.000
38.700	4325.000
38.720	4270.833
38.740	4325.000
38.760	4404.167
38.780	4416.667
38.800	4329.167
38.820	4379.167
38.840	4441.667
38.860	4370.833
38.880	4370.833
38.900	4275.000
38.920	4225.000
38.940	4170.833
38.960	4295.833
38.980	4370.833
39.000	4383.333
39.020	4450.000
39.040	4466.667
39.060	4458.333
39.080	4541.667
39.100	4512.500
39.120	4354.167
39.140	4408.333
39.160	4533.333
39.180	4604.167
39.200	4600.000
39.220	4658.333
39.240	4754.167
39.260	4604.167
39.280	4745.833
39.300	4837.500
39.320	4820.833
39.340	4958.333
39.360	5183.333
39.380	5287.500
39.400	5295.833
39.420	5254.167
39.440	5475.000
39.460	5658.333
39.480	5833.333
39.500	6100.000
39.520	6150.000
39.540	6175.000
39.560	6379.167
39.580	6600.000
39.600	6645.833
39.620	6529.167
39.640	6604.167
39.660	6708.333
39.680	6579.167
39.700	6358.333
39.720	6170.833
39.740	6029.167
39.760	5995.833
39.780	5712.500
39.800	5608.333
39.820	5587.500
39.840	5475.000
39.860	5441.667
39.880	5275.000
39.900	5137.500
39.920	5150.000
39.940	5154.167
39.960	4991.667
39.980	4879.167
40.000	4920.833
40.020	5000.000
40.040	4879.167
40.060	4758.333
40.080	4762.500
40.100	4650.000
40.120	4537.500
40.140	4466.667
40.160	4570.833
40.180	4612.500
40.200	4541.667
40.220	4450.000
40.240	4337.500
40.260	4262.500
40.280	4420.833
40.300	4504.167
40.320	4483.333
40.340	4291.667
40.360	4291.667
40.380	4329.167
40.400	4350.000
40.420	4350.000
40.440	4287.500
40.460	4300.000
40.480	4433.333
40.500	4462.500
40.520	4341.667
40.540	4258.333
40.560	4395.833
40.580	4366.667
40.600	4408.333
40.620	4445.833
40.640	4483.333
40.660	4654.167
40.680	4958.333
40.700	5500.000
40.720	6079.167
40.740	6233.333
40.760	6041.667
40.780	5729.167
40.800	5454.167
40.820	5316.667
40.840	5175.000
40.860	4995.833
40.880	4825.000
40.900	4641.667
40.920	4516.667
40.940	4400.000
40.960	4370.833
40.980	4279.167
41.000	4220.833
41.020	4287.500
41.040	4245.833
41.060	4120.833
41.080	4137.500
41.100	4195.833
41.120	4225.000
41.140	4179.167
41.160	4041.667
41.180	4083.333
41.200	4179.167
41.220	4308.333
41.240	4216.667
41.260	4129.167
41.280	4045.833
41.300	4050.000
41.320	4154.167
41.340	4095.833
41.360	4245.833
41.380	4175.000
41.400	4008.333
41.420	3920.833
41.440	4187.500
41.460	4312.500
41.480	4129.167
41.500	4079.167
41.520	4237.500
41.540	4254.167
41.560	4104.167
41.580	4133.333
41.600	4179.167
41.620	4183.333
41.640	4170.833
41.660	4100.000
41.680	3962.500
41.700	4191.667
41.720	4175.000
41.740	3987.500
41.760	4083.333
41.780	4270.833
41.800	4108.333
41.820	4116.667
41.840	4045.833
41.860	4087.500
41.880	4070.833
41.900	3891.667
41.920	3983.333
41.940	4208.333
41.960	4220.833
41.980	4025.000
42.000	4054.167
42.020	4095.833
42.040	4083.333
42.060	3983.333
42.080	4100.000
42.100	4270.833
42.120	4366.667
42.140	4204.167
42.160	4104.167
42.180	4241.667
42.200	4275.000
42.220	4345.833
42.240	4241.667
42.260	4108.333
42.280	4058.333
42.300	4141.667
42.320	4316.667
42.340	4300.000
42.360	4150.000
42.380	4204.167
42.400	4254.167
42.420	4270.833
42.440	4262.500
42.460	4141.667
42.480	4191.667
42.500	4175.000
42.520	4212.500
42.540	4258.333
42.560	4275.000
42.580	4312.500
42.600	4400.000
42.620	4237.500
42.640	4079.167
42.660	3933.333
42.680	3900.000
42.700	3975.000
42.720	4108.333
42.740	4141.667
42.760	4154.167
42.780	4187.500
42.800	4175.000
42.820	4100.000
42.840	4175.000
42.860	4287.500
42.880	4154.167
42.900	4162.500
42.920	4270.833
42.940	4233.333
42.960	4400.000
42.980	4454.167
43.000	4295.833
43.020	4312.500
43.040	4358.333
43.060	4362.500
43.080	4395.833
43.100	4366.667
43.120	4337.500
43.140	4300.000
43.160	4241.667
43.180	4258.333
43.200	4245.833
43.220	4279.167
43.240	4279.167
43.260	4154.167
43.280	4054.167
43.300	4166.667
43.320	4208.333
43.340	4220.833
43.360	4225.000
43.380	4345.833
43.400	4295.833
43.420	4333.333
43.440	4287.500
43.460	4125.000
43.480	4158.333
43.500	4266.667
43.520	4279.167
43.540	4154.167
43.560	4262.500
43.580	4241.667
43.600	4075.000
43.620	4079.167
43.640	4262.500
43.660	4337.500
43.680	4183.333
43.700	4216.667
43.720	4312.500
43.740	4412.500
43.760	4370.833
43.780	4433.333
43.800	4487.500
43.820	4325.000
43.840	4204.167
43.860	4245.833
43.880	4170.833
43.900	4291.667
43.920	4387.500
43.940	4279.167
43.960	4429.167
43.980	4425.000
44.000	4475.000
44.020	4479.167
44.040	4404.167
44.060	4545.833
44.080	4616.667
44.100	4654.167
44.120	4583.333
44.140	4570.833
44.160	4533.333
44.180	4537.500
44.200	4600.000
44.220	4691.667
44.240	4800.000
44.260	4879.167
44.280	5000.000
44.300	4962.500
44.320	4941.667
44.340	5029.167
44.360	5091.667
44.380	5125.000
44.400	5116.667
44.420	5187.500
44.440	5320.833
44.460	5450.000
44.480	5700.000
44.500	5845.833
44.520	5883.333
44.540	6150.000
44.560	6758.333
44.580	7695.833
44.600	9704.167
44.620	14800.000
44.640	24579.167
44.660	37500.000
44.680	48458.333
44.700	52158.333
44.720	48666.667
44.740	43804.167
44.760	39095.833
44.780	35116.667
44.800	32808.333
44.820	30383.333
44.840	26937.500
44.860	22445.833
44.880	17166.667
44.900	12112.500
44.920	8829.167
44.940	7037.500
44.960	6387.500
44.980	6058.333
45.000	5658.333
45.020	5533.333
45.040	5441.667
45.060	5250.000
45.080	5191.667
45.100	5133.333
45.120	5041.667
45.140	4962.500
45.160	4816.667
45.180	4850.000
45.200	4983.333
45.220	4995.833
45.240	4870.833
45.260	4725.000
45.280	4637.500
45.300	4575.000
45.320	4420.833
45.340	4550.000
45.360	4720.833
45.380	4466.667
45.400	4529.167
45.420	4641.667
45.440	4520.833
45.460	4441.667
45.480	4408.333
45.500	4358.333
45.520	4337.500
45.540	4400.000
45.560	4470.833
45.580	4433.333
45.600	4433.333
45.620	4270.833
45.640	4350.000
45.660	4362.500
45.680	4254.167
45.700	4225.000
45.720	4254.167
45.740	4291.667
45.760	4375.000
45.780	4462.500
45.800	4345.833
45.820	4208.333
45.840	4262.500
45.860	4275.000
45.880	4358.333
45.900	4325.000
45.920	4333.333
45.940	4341.667
45.960	4320.833
45.980	4300.000
46.000	4354.167
46.020	4379.167
46.040	4191.667
46.060	4225.000
46.080	4379.167
46.100	4404.167
46.120	4354.167
46.140	4366.667
46.160	4379.167
46.180	4383.333
46.200	4287.500
46.220	4212.500
46.240	4270.833
46.260	4308.333
46.280	4262.500
46.300	4333.333
46.320	4345.833
46.340	4354.167
46.360	4329.167
46.380	4358.333
46.400	4458.333
46.420	4458.333
46.440	4462.500
46.460	4358.333
46.480	4291.667
46.500	4270.833
46.520	4291.667
46.540	4362.500
46.560	4433.333
46.580	4441.667
46.600	4279.167
46.620	4325.000
46.640	4358.333
46.660	4325.000
46.680	4483.333
46.700	4445.833
46.720	4308.333
46.740	4275.000
46.760	4466.667
46.780	4716.667
46.800	4691.667
46.820	4537.500
46.840	4383.333
46.860	4412.500
46.880	4541.667
46.900	4500.000
46.920	4462.500
46.940	4504.167
46.960	4495.833
46.980	4533.333
47.000	4583.333
47.020	4662.500
47.040	4612.500
47.060	4741.667
47.080	4745.833
47.100	4620.833
47.120	4616.667
47.140	4704.167
47.160	4700.000
47.180	4900.000
47.200	4900.000
47.220	4870.833
47.240	4766.667
47.260	4804.167
47.280	4850.000
47.300	4733.333
47.320	4895.833
47.340	4920.833
47.360	5120.833
47.380	5229.167
47.400	5150.000
47.420	5283.333
47.440	5245.833
47.460	5116.667
47.480	5145.833
47.500	5204.167
47.520	5245.833
47.540	5262.500
47.560	5425.000
47.580	5691.667
47.600	5529.167
47.620	5337.500
47.640	5487.500
47.660	5654.167
47.680	5812.500
47.700	5912.500
47.720	5979.167
47.740	5850.000
47.760	6154.167
47.780	6287.500
47.800	6362.500
47.820	6620.833
47.840	6791.667
47.860	6745.833
47.880	6645.833
47.900	6625.000
47.920	6641.667
47.940	6787.500
47.960	7191.667
47.980	7466.667
48.000	7700.000
48.020	7725.000
48.040	7591.667
48.060	7716.667
48.080	8112.500
48.100	8325.000
48.120	8350.000
48.140	8354.167
48.160	8529.167
48.180	8683.333
48.200	8750.000
48.220	8620.833
48.240	8725.000
48.260	8858.333
48.280	8750.000
48.300	8604.167
48.320	8612.500
48.340	8416.667
48.360	8104.167
48.380	7883.333
48.400	7708.333
48.420	7479.167
48.440	7537.500
48.460	7508.333
48.480	7216.667
48.500	7008.333
48.520	6733.333
48.540	6595.833
48.560	6725.000
48.580	6691.667
48.600	6379.167
48.620	6233.333
48.640	6225.000
48.660	6070.833
48.680	6033.333
48.700	6000.000
48.720	5904.167
48.740	5870.833
48.760	5841.667
48.780	5720.833
48.800	5591.667
48.820	5491.667
48.840	5504.167
48.860	5508.333
48.880	5458.333
48.900	5483.333
48.920	5525.000
48.940	5612.500
48.960	5975.000
48.980	6541.667
49.000	7208.333
49.020	7733.333
49.040	7962.500
49.060	7879.167
49.080	7516.667
49.100	7083.333
49.120	6704.167
49.140	6516.667
49.160	6537.500
49.180	6425.000
49.200	6262.500
49.220	6100.000
49.240	5695.833
49.260	5341.667
49.280	5216.667
49.300	5179.167
49.320	5004.167
49.340	5041.667
49.360	4987.500
49.380	4920.833
49.400	5083.333
49.420	5225.000
49.440	5316.667
49.460	5429.167
49.480	5479.167
49.500	5329.167
49.520	5062.500
49.540	5195.833
49.560	5495.833
49.580	5433.333
49.600	5395.833
49.620	5458.333
49.640	5691.667
49.660	5870.833
49.680	6012.500
49.700	6141.667
49.720	6191.667
49.740	6454.167
49.760	6841.667
49.780	7208.333
49.800	8037.500
49.820	9887.500
49.840	13616.667
49.860	20425.000
49.880	30520.833
49.900	41816.667
49.920	49954.167
49.940	50620.833
49.960	42600.000
49.980	32125.000
50.000	26158.333
50.020	25762.500
50.040	28054.167
50.060	29583.333
50.080	26966.667
50.100	20766.667
50.120	15000.000
50.140	10937.500
50.160	8425.000
50.180	7100.000
50.200	6341.667
50.220	6033.333
50.240	5900.000
50.260	5729.167
50.280	5662.500
50.300	5529.167
50.320	5295.833
50.340	5075.000
50.360	4941.667
50.380	4841.667
50.400	4829.167
50.420	4800.000
50.440	4845.833
50.460	4837.500
50.480	4666.667
50.500	4720.833
50.520	4787.500
50.540	4687.500
50.560	4637.500
50.580	4625.000
50.600	4591.667
50.620	4554.167
50.640	4504.167
50.660	4458.333
50.680	4487.500
50.700	4583.333
50.720	4662.500
50.740	4562.500
50.760	4604.167
50.780	4554.167
50.800	4500.000
50.820	4604.167
50.840	4566.667
50.860	4591.667
50.880	4579.167
50.900	4537.500
50.920	4475.000
50.940	4491.667
50.960	4479.167
50.980	4379.167
51.000	4479.167
51.020	4495.833
51.040	4562.500
51.060	4545.833
51.080	4420.833
51.100	4437.500
51.120	4483.333
51.140	4504.167
51.160	4533.333
51.180	4483.333
51.200	4379.167
51.220	4466.667
51.240	4479.167
51.260	4366.667
51.280	4362.500
51.300	4416.667
51.320	4562.500
51.340	4670.833
51.360	4687.500
51.380	4587.500
51.400	4554.167
51.420	4495.833
51.440	4341.667
51.460	4412.500
51.480	4408.333
51.500	4466.667
51.520	4404.167
51.540	4400.000
51.560	4504.167
51.580	4333.333
51.600	4291.667
51.620	4358.333
51.640	4279.167
51.660	4300.000
51.680	4316.667
51.700	4270.833
51.720	4341.667
51.740	4370.833
51.760	4208.333
51.780	4087.500
51.800	3995.833
51.820	4112.500
51.840	4237.500
51.860	4291.667
51.880	4304.167
51.900	4183.333
51.920	4200.000
51.940	4258.333
51.960	4266.667
51.980	4337.500
52.000	4325.000
52.020	4375.000
52.040	4400.000
52.060	4212.500
52.080	4175.000
52.100	4283.333
52.120	4320.833
52.140	4350.000
52.160	4370.833
52.180	4312.500
52.200	4320.833
52.220	4395.833
52.240	4308.333
52.260	4270.833
52.280	4220.833
52.300	4279.167
52.320	4400.000
52.340	4216.667
52.360	4216.667
52.380	4462.500
52.400	4404.167
52.420	4229.167
52.440	4279.167
52.460	4304.167
52.480	4187.500
52.500	4287.500
52.520	4333.333
52.540	4245.833
52.560	4170.833
52.580	4225.000
52.600	4208.333
52.620	4320.833
52.640	4291.667
52.660	4095.833
52.680	4087.500
52.700	4100.000
52.720	4204.167
52.740	4266.667
52.760	4312.500
52.780	4441.667
52.800	4475.000
52.820	4354.167
52.840	4316.667
52.860	4366.667
52.880	4354.167
52.900	4379.167
52.920	4358.333
52.940	4300.000
52.960	4350.000
52.980	4329.167
53.000	4254.167
53.020	4279.167
53.040	4250.000
53.060	4300.000
53.080	4445.833
53.100	4416.667
53.120	4379.167
53.140	4454.167
53.160	4491.667
53.180	4520.833
53.200	4570.833
53.220	4525.000
53.240	4550.000
53.260	4525.000
53.280	4600.000
53.300	4741.667
53.320	4816.667
53.340	4808.333
53.360	4729.167
53.380	4679.167
53.400	4625.000
53.420	4700.000
53.440	4700.000
53.460	4612.500
53.480	4758.333
53.500	4704.167
53.520	4637.500
53.540	4737.500
53.560	4629.167
53.580	4704.167
53.600	4745.833
53.620	4537.500
53.640	4500.000
53.660	4600.000
53.680	4537.500
53.700	4462.500
53.720	4475.000
53.740	4412.500
53.760	4329.167
53.780	4375.000
53.800	4312.500
53.820	4250.000
53.840	4408.333
53.860	4320.833
53.880	4250.000
53.900	4270.833
53.920	4208.333
53.940	4200.000
53.960	4195.833
53.980	4200.000
54.000	4270.833
54.020	4320.833
54.040	4266.667
54.060	4241.667
54.080	4191.667
54.100	4145.833
54.120	4141.667
54.140	4254.167
54.160	4437.500
54.180	4404.167
54.200	4300.000
54.220	4525.000
54.240	5041.667
54.260	5375.000
54.280	5625.000
54.300	6029.167
54.320	6304.167
54.340	6000.000
54.360	5470.833
54.380	5283.333
54.400	5170.833
54.420	5133.333
54.440	5208.333
54.460	5225.000
54.480	5100.000
54.500	4866.667
54.520	4670.833
54.540	4508.333
54.560	4416.667
54.580	4379.167
54.600	4295.833
54.620	4212.500
54.640	4175.000
54.660	4179.167
54.680	4175.000
54.700	4087.500
54.720	3925.000
54.740	4037.500
54.760	4245.833
54.780	4225.000
54.800	4220.833
54.820	4179.167
54.840	4033.333
54.860	4025.000
54.880	3979.167
54.900	4041.667
54.920	4183.333
54.940	4020.833
54.960	3891.667
54.980	4070.833
55.000	4170.833
55.020	4200.000
55.040	4183.333
55.060	4066.667
55.080	4095.833
55.100	4145.833
55.120	4004.167
55.140	4062.500
55.160	4108.333
55.180	4083.333
55.200	4091.667
55.220	4062.500
55.240	4037.500
55.260	3991.667
55.280	4062.500
55.300	4016.667
55.320	4037.500
55.340	4004.167
55.360	4070.833
55.380	4125.000
55.400	4029.167
55.420	4079.167
55.440	4087.500
55.460	3933.333
55.480	3920.833
55.500	4033.333
55.520	4104.167
55.540	4058.333
55.560	4050.000
55.580	4016.667
55.600	3954.167
55.620	4025.000
55.640	4087.500
55.660	3991.667
55.680	3983.333
55.700	3970.833
55.720	4000.000
55.740	4100.000
55.760	4016.667
55.780	3925.000
55.800	4050.000
55.820	4166.667
55.840	4112.500
55.860	4166.667
55.880	4166.667
55.900	4329.167
55.920	4541.667
55.940	4754.167
55.960	5275.000
55.980	5466.667
56.000	5212.500
56.020	4825.000
56.040	4600.000
56.060	4441.667
56.080	4470.833
56.100	4670.833
56.120	4795.833
56.140	4729.167
56.160	4545.833
56.180	4395.833
56.200	4325.000
56.220	4095.833
56.240	3991.667
56.260	4129.167
56.280	4220.833
56.300	4104.167
56.320	4037.500
56.340	4100.000
56.360	4062.500
56.380	4116.667
56.400	4125.000
56.420	4041.667
56.440	4087.500
56.460	4170.833
56.480	4179.167
56.500	4154.167
56.520	4020.833
56.540	3991.667
56.560	4154.167
56.580	4100.000
56.600	4175.000
56.620	4212.500
56.640	4208.333
56.660	4241.667
56.680	4141.667
56.700	4054.167
56.720	4045.833
56.740	3979.167
56.760	3941.667
56.780	3929.167
56.800	3975.000
56.820	4254.167
56.840	4350.000
56.860	4262.500
56.880	4250.000
56.900	4225.000
56.920	4075.000
56.940	4116.667
56.960	4245.833
56.980	4250.000
57.000	4229.167
57.020	4112.500
57.040	4104.167
57.060	4058.333
57.080	4187.500
57.100	4245.833
57.120	4258.333
57.140	4358.333
57.160	4487.500
57.180	4554.167
57.200	4454.167
57.220	4637.500
57.240	5245.833
57.260	5920.833
57.280	6279.167
57.300	6054.167
57.320	5654.167
57.340	5445.833
57.360	5254.167
57.380	4962.500
57.400	5000.000
57.420	5233.333
57.440	5233.333
57.460	4987.500
57.480	4704.167
57.500	4491.667
57.520	4333.333
57.540	4283.333
57.560	4283.333
57.580	4241.667
57.600	4050.000
57.620	4083.333
57.640	4183.333
57.660	4137.500
57.680	4020.833
57.700	3962.500
57.720	3900.000
57.740	3879.167
57.760	3900.000
57.780	4016.667
57.800	4062.500
57.820	4016.667
57.840	4108.333
57.860	4054.167
57.880	4025.000
57.900	4033.333
57.920	3954.167
57.940	3979.167
57.960	4108.333
57.980	4141.667
58.000	4083.333
58.020	4087.500
58.040	4037.500
58.060	4083.333
58.080	4029.167
58.100	4050.000
58.120	4183.333
58.140	4275.000
58.160	4600.000
58.180	5220.833
58.200	5625.000
58.220	6212.500
58.240	6379.167
58.260	6262.500
58.280	6241.667
58.300	5912.500
58.320	5466.667
58.340	5108.333
58.360	4987.500
58.380	5091.667
58.400	5162.500
58.420	5133.333
58.440	5104.167
58.460	4904.167
58.480	4629.167
58.500	4437.500
58.520	4095.833
58.540	3995.833
58.560	4016.667
58.580	4104.167
58.600	4125.000
58.620	4070.833
58.640	4062.500
58.660	4108.333
58.680	4150.000
58.700	4170.833
58.720	4170.833
58.740	4112.500
58.760	4075.000
58.780	4008.333
58.800	3916.667
58.820	4004.167
58.840	3962.500
58.860	3958.333
58.880	4141.667
58.900	4037.500
58.920	4041.667
58.940	4108.333
58.960	4033.333
58.980	4020.833
59.000	4020.833
59.020	3891.667
59.040	3791.667
59.060	3870.833
59.080	4004.167
59.100	4037.500
59.120	3937.500
59.140	3900.000
59.160	3945.833
59.180	3966.667
59.200	3958.333
59.220	4025.000
59.240	3995.833
59.260	3937.500
59.280	3958.333
59.300	3879.167
59.320	3812.500
59.340	3933.333
59.360	4020.833
59.380	3983.333
59.400	3925.000
59.420	3979.167
59.440	3912.500
59.460	3841.667
59.480	3825.000
59.500	3879.167
59.520	3958.333
59.540	4004.167
59.560	3970.833
59.580	3975.000
59.600	3995.833
59.620	3975.000
59.640	3929.167
59.660	3895.833
59.680	4054.167
59.700	4075.000
59.720	3929.167
59.740	3916.667
59.760	4012.500
59.780	3912.500
59.800	3908.333
59.820	3900.000
59.840	3908.333
59.860	3883.333
59.880	3870.833
59.900	3870.833
59.920	3991.667
59.940	4037.500
59.960	3854.167
59.980	3775.000
60.000	3850.000
60.020	3991.667
60.040	3991.667
60.060	3987.500
60.080	3937.500
60.100	3875.000
60.120	3787.500
60.140	3791.667
60.160	3900.000
60.180	3862.500
60.200	3829.167
60.220	4037.500
60.240	4016.667
60.260	3941.667
60.280	3933.333
60.300	3970.833
60.320	3833.333
60.340	3804.167
60.360	3887.500
60.380	3916.667
60.400	3979.167
60.420	4033.333
60.440	3883.333
60.460	3841.667
60.480	3975.000
60.500	3995.833
60.520	4058.333
60.540	3875.000
60.560	3870.833
60.580	3900.000
60.600	3862.500
60.620	3825.000
60.640	3937.500
60.660	3962.500
60.680	4054.167
60.700	4025.000
60.720	3991.667
60.740	4033.333
60.760	4083.333
60.780	4150.000
60.800	4125.000
60.820	4091.667
60.840	4075.000
60.860	3858.333
60.880	3887.500
60.900	3925.000
60.920	3991.667
60.940	4095.833
60.960	4091.667
60.980	4112.500
61.000	4116.667
61.020	4045.833
61.040	3925.000
61.060	3845.833
61.080	3933.333
61.100	4012.500
61.120	4016.667
61.140	4100.000
61.160	4175.000
61.180	4020.833
61.200	4033.333
61.220	4070.833
61.240	4158.333
61.260	3962.500
61.280	4212.500
61.300	4170.833
61.320	4037.500
61.340	3962.500
61.360	4075.000
61.380	4125.000
61.400	4212.500
61.420	4237.500
61.440	4212.500
61.460	4050.000
61.480	3900.000
61.500	4041.667
61.520	4008.333
61.540	3962.500
61.560	4066.667
61.580	3995.833
61.600	3908.333
61.620	4037.500
61.640	4054.167
61.660	4187.500
61.680	4004.167
61.700	3991.667
61.720	4045.833
61.740	4129.167
61.760	4154.167
61.780	4150.000
61.800	4120.833
61.820	4016.667
61.840	4125.000
61.860	4145.833
61.880	4091.667
61.900	4141.667
61.920	4212.500
61.940	4145.833
61.960	4162.500
61.980	4108.333
62.000	4237.500
62.020	4200.000
62.040	4162.500
62.060	4275.000
62.080	4254.167
62.100	4241.667
62.120	4204.167
62.140	4300.000
62.160	4366.667
62.180	4312.500
62.200	4154.167
62.220	4183.333
62.240	4058.333
62.260	4108.333
62.280	4250.000
62.300	4091.667
62.320	4166.667
62.340	4250.000
62.360	4158.333
62.380	4125.000
62.400	4125.000
62.420	4033.333
62.440	4087.500
62.460	4091.667
62.480	3995.833
62.500	4075.000
62.520	4133.333
62.540	3895.833
62.560	3966.667
62.580	4050.000
62.600	4145.833
62.620	4000.000
62.640	4112.500
62.660	4104.167
62.680	4162.500
62.700	4120.833
62.720	4150.000
62.740	4154.167
62.760	4116.667
62.780	4162.500
62.800	4016.667
62.820	4070.833
62.840	4200.000
62.860	4150.000
62.880	4237.500
62.900	4145.833
62.920	4150.000
62.940	4283.333
62.960	4304.167
62.980	4062.500
63.000	4175.000
63.020	4295.833
63.040	4200.000
63.060	4170.833
63.080	4154.167
63.100	4241.667
63.120	4275.000
63.140	4266.667
63.160	4037.500
63.180	4066.667
63.200	4250.000
63.220	4220.833
63.240	4225.000
63.260	4187.500
63.280	4200.000
63.300	4195.833
63.320	4204.167
63.340	4287.500
63.360	4416.667
63.380	4262.500
63.400	4316.667
63.420	4225.000
63.440	4291.667
63.460	4341.667
63.480	4341.667
63.500	4295.833
63.520	4466.667
63.540	4512.500
63.560	4479.167
63.580	4462.500
63.600	4708.333
63.620	4729.167
63.640	4695.833
63.660	4633.333
63.680	4933.333
63.700	5041.667
63.720	4920.833
63.740	4820.833
63.760	4741.667
63.780	4766.667
63.800	4712.500
63.820	4866.667
63.840	4920.833
63.860	4875.000
63.880	4812.500
63.900	4583.333
63.920	4550.000
63.940	4612.500
63.960	4708.333
63.980	4675.000
64.000	4750.000
64.020	4783.333
64.040	4637.500
64.060	4766.667
64.080	4820.833
64.100	4870.833
64.120	4708.333
64.140	4550.000
64.160	4416.667
64.180	4495.833
64.200	4716.667
64.220	4658.333
64.240	4533.333
64.260	4570.833
64.280	4575.000
64.300	4662.500
64.320	4741.667
64.340	4862.500
64.360	4737.500
64.380	4633.333
64.400	4704.167
64.420	4658.333
64.440	4595.833
64.460	4562.500
64.480	4616.667
64.500	4554.167
64.520	4558.333
64.540	4525.000
64.560	4537.500
64.580	4554.167
64.600	4545.833
64.620	4483.333
64.640	4333.333
64.660	4441.667
64.680	4362.500
64.700	4437.500
64.720	4229.167
64.740	4145.833
64.760	4212.500
64.780	4175.000
64.800	4387.500
64.820	4475.000
64.840	4383.333
64.860	4520.833
64.880	4416.667
64.900	4454.167
64.920	4379.167
64.940	4387.500
64.960	4333.333
64.980	4329.167
65.000	4166.667
65.020	4229.167
65.040	4116.667
65.060	4245.833
65.080	4333.333
65.100	4325.000
65.120	4312.500
65.140	4379.167
65.160	4470.833
65.180	4337.500
65.200	4416.667
65.220	4525.000
65.240	4308.333
65.260	4341.667
65.280	4470.833
65.300	4275.000
65.320	4400.000
65.340	4441.667
65.360	4291.667
65.380	4466.667
65.400	4262.500
65.420	4308.333
65.440	4462.500
65.460	4537.500
65.480	4616.667
65.500	4645.833
65.520	4575.000
65.540	4429.167
65.560	4587.500
65.580	4445.833
65.600	4437.500
65.620	4358.333
65.640	4433.333
65.660	4387.500
65.680	4437.500
65.700	4604.167
65.720	4383.333
65.740	4329.167
65.760	4504.167
65.780	4587.500
65.800	4666.667
65.820	4687.500
65.840	4704.167
65.860	4445.833
65.880	4300.000
65.900	4458.333
65.920	4470.833
65.940	4462.500
65.960	4645.833
65.980	4295.833
66.000	4520.833
66.020	4483.333
66.040	4383.333
66.060	4237.500
66.080	4275.000
66.100	4333.333
66.120	4241.667
66.140	4525.000
66.160	4391.667
66.180	4554.167
66.200	4416.667
66.220	4325.000
66.240	4400.000
66.260	4475.000
66.280	4279.167
66.300	4433.333
66.320	4383.333
66.340	4275.000
66.360	4333.333
66.380	4279.167
66.400	4491.667
66.420	4491.667
66.440	4429.167
66.460	4516.667
66.480	4450.000
66.500	4287.500
66.520	4429.167
66.540	4195.833
66.560	4308.333
66.580	4437.500
66.600	4445.833
66.620	4304.167
66.640	4254.167
66.660	4300.000
66.680	4304.167
66.700	4304.167
66.720	4300.000
66.740	4266.667
66.760	4366.667
66.780	4391.667
66.800	4487.500
66.820	4408.333
66.840	4475.000
66.860	4395.833
66.880	4308.333
66.900	4250.000
66.920	4216.667
66.940	4162.500
66.960	4200.000
66.980	4400.000
67.000	4420.833
67.020	4437.500
67.040	4487.500
67.060	4345.833
67.080	4604.167
67.100	4475.000
67.120	4520.833
67.140	4483.333
67.160	4508.333
67.180	4620.833
67.200	4679.167
67.220	4658.333
67.240	4700.000
67.260	4633.333
67.280	4533.333
67.300	4558.333
67.320	4575.000
67.340	4620.833
67.360	4650.000
67.380	4658.333
67.400	4841.667
67.420	4737.500
67.440	4808.333
67.460	4637.500
67.480	4695.833
67.500	4691.667
67.520	4700.000
67.540	4770.833
67.560	4891.667
67.580	4725.000
67.600	4783.333
67.620	4650.000
67.640	4679.167
67.660	4820.833
67.680	4750.000
67.700	4900.000
67.720	5025.000
67.740	4970.833
67.760	4695.833
67.780	4987.500
67.800	4987.500
67.820	4991.667
67.840	5187.500
67.860	5012.500
67.880	5212.500
67.900	5145.833
67.920	5229.167
67.940	5270.833
67.960	5233.333
67.980	5554.167
68.000	5504.167
68.020	5712.500
68.040	5887.500
68.060	6016.667
68.080	6241.667
68.100	6487.500
68.120	6566.667
68.140	6883.333
68.160	7191.667
68.180	7345.833
68.200	7350.000
68.220	7533.333
68.240	7716.667
68.260	8000.000
68.280	8370.833
68.300	8925.000
68.320	9608.333
68.340	10741.667
68.360	12375.000
68.380	15470.833
68.400	20904.167
68.420	29620.833
68.440	43008.333
68.460	61237.500
68.480	82933.333
68.500	103762.500
68.520	115141.667
68.540	109425.000
68.560	89175.000
68.580	65820.833
68.600	48491.667
68.620	40312.500
68.640	39725.000
68.660	44750.000
68.680	52541.667
68.700	60066.667
68.720	62445.833
68.740	56200.000
68.760	44529.167
68.780	32800.000
68.800	23200.000
68.820	17237.500
68.840	13366.667
68.860	11041.667
68.880	9670.833
68.900	8520.833
68.920	7937.500
68.940	7554.167
68.960	7104.167
68.980	6791.667
69.000	6462.500
69.020	6391.667
69.040	6058.333
69.060	6050.000
69.080	5766.667
69.100	5712.500
69.120	5725.000
69.140	5475.000
69.160	5633.333
69.180	5316.667
69.200	5520.833
69.220	5462.500
69.240	5558.333
69.260	5554.167
69.280	5408.333
69.300	5316.667
69.320	5450.000
69.340	5341.667
69.360	5466.667
69.380	5145.833
69.400	5166.667
69.420	5216.667
69.440	5062.500
69.460	5233.333
69.480	5191.667
69.500	5108.333
69.520	5141.667
69.540	5754.167
69.560	5858.333
69.580	6316.667
69.600	6570.833
69.620	6400.000
69.640	6529.167
69.660	5845.833
69.680	5562.500
69.700	5325.000
69.720	5012.500
69.740	5033.333
69.760	5262.500
69.780	5308.333
69.800	5512.500
69.820	5420.833
69.840	5333.333
69.860	5037.500
69.880	4950.000
69.900	4937.500
69.920	4479.167
69.940	4400.000
69.960	4266.667
69.980	4300.000
70.000	4387.500
70.020	4416.667
70.040	4200.000
70.060	4358.333
70.080	4437.500
70.100	4304.167
70.120	4383.333
70.140	4408.333
70.160	4362.500
70.180	4254.167
70.200	4241.667
70.220	4133.333
70.240	4279.167
70.260	4212.500
70.280	4237.500
70.300	4204.167
70.320	4316.667
70.340	4329.167
70.360	4291.667
70.380	4329.167
70.400	4429.167
70.420	4308.333
70.440	4275.000
70.460	3975.000
70.480	4250.000
70.500	4370.833
70.520	4150.000
70.540	4075.000
70.560	4279.167
70.580	4166.667
70.600	4166.667
70.620	4183.333
70.640	4187.500
70.660	4337.500
70.680	4225.000
70.700	4137.500
70.720	4304.167
70.740	4287.500
70.760	4258.333
70.780	4166.667
70.800	4116.667
70.820	4125.000
70.840	4300.000
70.860	4291.667
70.880	4166.667
70.900	4245.833
70.920	4195.833
70.940	4091.667
70.960	4195.833
70.980	4100.000
71.000	4091.667
71.020	4187.500
71.040	4091.667
71.060	3920.833
71.080	4150.000
71.100	4304.167
71.120	4141.667
71.140	4245.833
71.160	4083.333
71.180	4070.833
71.200	4020.833
71.220	4158.333
71.240	4208.333
71.260	4137.500
71.280	4162.500
71.300	4154.167
71.320	4083.333
71.340	4054.167
71.360	4179.167
71.380	4079.167
71.400	4091.667
71.420	4233.333
71.440	4237.500
71.460	4083.333
71.480	4137.500
71.500	3925.000
71.520	4166.667
71.540	3970.833
71.560	4195.833
71.580	4175.000
71.600	4341.667
71.620	4175.000
71.640	4187.500
71.660	4158.333
71.680	4066.667
71.700	3991.667
71.720	4083.333
71.740	4008.333
71.760	4195.833
71.780	4216.667
71.800	4075.000
71.820	4079.167
71.840	4137.500
71.860	4008.333
71.880	4066.667
71.900	4262.500
71.920	4137.500
71.940	4200.000
71.960	4175.000
71.980	4175.000
72.000	4341.667
72.020	4100.000
72.040	4129.167
72.060	4429.167
72.080	4225.000
72.100	4429.167
72.120	4233.333
72.140	4237.500
72.160	4320.833
72.180	4275.000
72.200	4345.833
72.220	4416.667
72.240	4325.000
72.260	4245.833
72.280	4325.000
72.300	4400.000
72.320	4354.167
72.340	4270.833
72.360	4204.167
72.380	4145.833
72.400	4245.833
72.420	4295.833
72.440	4533.333
72.460	4604.167
72.480	4516.667
72.500	4695.833
72.520	4625.000
72.540	4691.667
72.560	4879.167
72.580	4916.667
72.600	4945.833
72.620	5095.833
72.640	5091.667
72.660	4995.833
72.680	5000.000
72.700	4970.833
72.720	4854.167
72.740	4841.667
72.760	4925.000
72.780	5037.500
72.800	5033.333
72.820	5025.000
72.840	5100.000
72.860	5070.833
72.880	5087.500
72.900	5012.500
72.920	5016.667
72.940	5037.500
72.960	5225.000
72.980	5033.333
73.000	5112.500
73.020	4954.167
73.040	5204.167
73.060	5104.167
73.080	5258.333
73.100	5016.667
73.120	5008.333
73.140	4920.833
73.160	5054.167
73.180	4866.667
73.200	4862.500
73.220	5058.333
73.240	5175.000
73.260	5012.500
73.280	5070.833
73.300	4833.333
73.320	5000.000
73.340	4883.333
73.360	5004.167
73.380	4779.167
73.400	4804.167
73.420	4791.667
73.440	4712.500
73.460	4850.000
73.480	4754.167
73.500	4633.333
73.520	4600.000
73.540	4704.167
73.560	4775.000
73.580	4725.000
73.600	4845.833
73.620	4908.333
73.640	4854.167
73.660	4737.500
73.680	4604.167
73.700	4520.833
73.720	4500.000
73.740	4379.167
73.760	4512.500
73.780	4395.833
73.800	4475.000
73.820	4383.333
73.840	4470.833
73.860	4491.667
73.880	4350.000
73.900	4504.167
73.920	4387.500
73.940	4162.500
73.960	4204.167
73.980	4229.167
74.000	4279.167
74.020	4325.000
74.040	4250.000
74.060	4375.000
74.080	4345.833
74.100	4208.333
74.120	4104.167
74.140	4183.333
74.160	4125.000
74.180	4387.500
74.200	4262.500
74.220	4345.833
74.240	4270.833
74.260	4429.167
74.280	4533.333
74.300	4600.000
74.320	4633.333
74.340	4687.500
74.360	4666.667
74.380	4420.833
74.400	4420.833
74.420	4537.500
74.440	4354.167
74.460	4312.500
74.480	4287.500
74.500	4341.667
74.520	4587.500
74.540	4279.167
74.560	4612.500
74.580	4562.500
74.600	4416.667
74.620	4391.667
74.640	4279.167
74.660	4454.167
74.680	4429.167
74.700	4533.333
74.720	4133.333
74.740	4275.000
74.760	4200.000
74.780	4316.667
74.800	4308.333
74.820	4412.500
74.840	4429.167
74.860	4366.667
74.880	4345.833
74.900	4433.333
74.920	4212.500
74.940	4195.833
74.960	4333.333
74.980	4395.833
75.000	4595.833
75.020	4595.833
75.040	4416.667
75.060	4495.833
75.080	4600.000
75.100	4491.667
75.120	4441.667
75.140	4345.833
75.160	4375.000
75.180	4416.667
75.200	4600.000
75.220	4554.167
75.240	4458.333
75.260	4570.833
75.280	4495.833
75.300	4708.333
75.320	4541.667
75.340	4579.167
75.360	4604.167
75.380	4504.167
75.400	4454.167
75.420	4595.833
75.440	4862.500
75.460	4733.333
75.480	4787.500
75.500	4558.333
75.520	4662.500
75.540	4412.500
75.560	4358.333
75.580	4429.167
75.600	4641.667
75.620	4512.500
75.640	4604.167
75.660	4483.333
75.680	4612.500
75.700	4595.833
75.720	4612.500
75.740	4804.167
75.760	4504.167
75.780	4500.000
75.800	4533.333
75.820	4575.000
75.840	4633.333
75.860	4575.000
75.880	4695.833
75.900	4425.000
75.920	4533.333
75.940	4537.500
75.960	4325.000
75.980	4475.000
76.000	4495.833
76.020	4662.500
76.040	4637.500
76.060	4816.667
76.080	4537.500
76.100	4504.167
76.120	4608.333
76.140	4704.167
76.160	4587.500
76.180	4645.833
76.200	4633.333
76.220	4570.833
76.240	4595.833
76.260	4608.333
76.280	4566.667
76.300	4583.333
76.320	4645.833
76.340	4500.000
76.360	4512.500
76.380	4604.167
76.400	4629.167
76.420	4441.667
76.440	4358.333
76.460	4483.333
76.480	4541.667
76.500	4650.000
76.520	4533.333
76.540	4641.667
76.560	4758.333
76.580	4833.333
76.600	4650.000
76.620	4608.333
76.640	4683.333
76.660	4745.833
76.680	4633.333
76.700	4412.500
76.720	4512.500
76.740	4420.833
76.760	4608.333
76.780	4875.000
76.800	4704.167
76.820	4816.667
76.840	4720.833
76.860	4650.000
76.880	4637.500
76.900	4541.667
76.920	4654.167
76.940	4629.167
76.960	4716.667
76.980	4704.167
77.000	4637.500
77.020	4666.667
77.040	4691.667
77.060	4600.000
77.080	4654.167
77.100	4645.833
77.120	4554.167
77.140	4566.667
77.160	4612.500
77.180	4416.667
77.200	4433.333
77.220	4604.167
77.240	4616.667
77.260	4462.500
77.280	4250.000
77.300	4279.167
77.320	4258.333
77.340	4416.667
77.360	4554.167
77.380	4245.833
77.400	4270.833
77.420	4487.500
77.440	4341.667
77.460	4275.000
77.480	4308.333
77.500	4204.167
77.520	4400.000
77.540	4275.000
77.560	4254.167
77.580	4437.500
77.600	4370.833
77.620	4220.833
77.640	4104.167
77.660	4066.667
77.680	4225.000
77.700	4229.167
77.720	4054.167
77.740	4079.167
77.760	4141.667
77.780	4291.667
77.800	4266.667
77.820	4025.000
77.840	4008.333
77.860	3983.333
77.880	4150.000
77.900	3983.333
77.920	4004.167
77.940	3891.667
77.960	3991.667
77.980	3966.667
78.000	4062.500
78.020	3854.167
78.040	3779.167
78.060	3929.167
78.080	4116.667
78.100	3941.667
78.120	3845.833
78.140	4083.333
78.160	4000.000
78.180	3779.167
78.200	3795.833
78.220	4079.167
78.240	3933.333
78.260	3870.833
78.280	3791.667
78.300	3841.667
78.320	3833.333
78.340	3945.833
78.360	3895.833
78.380	3850.000
78.400	3837.500
78.420	3791.667
78.440	3937.500
78.460	3783.333
78.480	3825.000
78.500	3858.333
78.520	3833.333
78.540	3816.667
78.560	3833.333
78.580	3812.500
78.600	3837.500
78.620	3625.000
78.640	3666.667
78.660	3925.000
78.680	3762.500
78.700	3912.500
78.720	3825.000
78.740	3650.000
78.760	3854.167
78.780	3666.667
78.800	3700.000
78.820	3758.333
78.840	3691.667
78.860	3729.167
78.880	3666.667
78.900	3645.833
78.920	3779.167
78.940	3679.167
78.960	3658.333
78.980	3762.500
79.000	3862.500
79.020	3770.833
79.040	3900.000
79.060	3741.667
79.080	3658.333
79.100	3875.000
79.120	3725.000
79.140	3850.000
79.160	3691.667
79.180	3770.833
79.200	3658.333
79.220	3658.333
79.240	3745.833
79.260	3854.167
79.280	3725.000
79.300	3870.833
79.320	3670.833
79.340	3791.667
79.360	3841.667
79.380	3858.333
79.400	3929.167
79.420	3695.833
79.440	3854.167
79.460	3725.000
79.480	3691.667
79.500	3708.333
79.520	3720.833
79.540	3691.667
79.560	3791.667
79.580	3845.833
79.600	3816.667
79.620	3945.833
79.640	3750.000
79.660	3850.000
79.680	3966.667
79.700	4087.500
79.720	3895.833
79.740	4012.500
79.760	3991.667
79.780	4033.333
79.800	4000.000
79.820	3945.833
79.840	3941.667
79.860	3837.500
79.880	3808.333
79.900	3920.833
79.920	3812.500
79.940	3450.000
79.960	3870.833
79.980	3991.667
80.000	3937.500
80.020	3983.333
80.040	3720.833
80.060	3725.000
80.080	3687.500
80.100	3666.667
80.120	3662.500
80.140	3691.667
80.160	3666.667
80.180	3862.500
80.200	3866.667
80.220	3837.500
80.240	3816.667
80.260	4025.000
80.280	3616.667
80.300	3741.667
80.320	3625.000
80.340	3558.333
80.360	3591.667
80.380	3633.333
80.400	3933.333
80.420	3887.500
80.440	3879.167
80.460	3733.333
80.480	3745.833
80.500	3879.167
80.520	3816.667
80.540	3908.333
80.560	3654.167
80.580	3766.667
80.600	3845.833
80.620	3741.667
80.640	3783.333
80.660	3666.667
80.680	3562.500
80.700	3783.333
80.720	3741.667
80.740	3716.667
80.760	3604.167
80.780	3625.000
80.800	3795.833
80.820	4025.000
80.840	3808.333
80.860	3666.667
80.880	3733.333
80.900	3720.833
80.920	3579.167
80.940	3587.500
80.960	3737.500
80.980	3883.333
81.000	3795.833
81.020	3754.167
81.040	3787.500
81.060	3812.500
81.080	3729.167
81.100	3512.500
81.120	3629.167
81.140	3687.500
81.160	3779.167
81.180	3758.333
81.200	3600.000
81.220	3629.167
81.240	3600.000
81.260	3937.500
81.280	3916.667
81.300	3808.333
81.320	3570.833
81.340	3695.833
81.360	3783.333
81.380	3754.167
81.400	3625.000
81.420	3708.333
81.440	3775.000
81.460	3658.333
81.480	3716.667
81.500	3641.667
81.520	3779.167
81.540	3766.667
81.560	3716.667
81.580	3750.000
81.600	3725.000
81.620	3650.000
81.640	3729.167
81.660	3904.167
81.680	3862.500
81.700	3666.667
81.720	3895.833
81.740	3758.333
81.760	3575.000
81.780	3800.000
81.800	3620.833
81.820	3566.667
81.840	3816.667
81.860	3766.667
81.880	3658.333
81.900	3854.167
81.920	3891.667
81.940	3900.000
81.960	3829.167
81.980	3900.000
82.000	3695.833
82.020	3841.667
82.040	3766.667
82.060	3729.167
82.080	3891.667
82.100	3908.333
82.120	3716.667
82.140	3741.667
82.160	3825.000
82.180	3766.667
82.200	3654.167
82.220	3933.333
82.240	3825.000
82.260	3833.333
82.280	3820.833
82.300	3716.667
82.320	3591.667
82.340	3691.667
82.360	3633.333
82.380	3720.833
82.400	3908.333
82.420	3866.667
82.440	3841.667
82.460	3929.167
82.480	3795.833
82.500	3808.333
82.520	3837.500
82.540	3704.167
82.560	3508.333
82.580	3762.500
82.600	3879.167
82.620	3866.667
82.640	3758.333
82.660	3675.000
82.680	3650.000
82.700	3833.333
82.720	3700.000
82.740	3725.000
82.760	3891.667
82.780	3779.167
82.800	3820.833
82.820	3737.500
82.840	3779.167
82.860	3958.333
82.880	3837.500
82.900	3816.667
82.920	3650.000
82.940	3712.500
82.960	4004.167
82.980	3979.167
83.000	3837.500
83.020	3762.500
83.040	3954.167
83.060	4033.333
83.080	4025.000
83.100	4091.667
83.120	4041.667
83.140	3870.833
83.160	3625.000
83.180	3862.500
83.200	3745.833
83.220	3729.167
83.240	3950.000
83.260	3975.000
83.280	3937.500
83.300	3666.667
83.320	3904.167
83.340	3950.000
83.360	3920.833
83.380	3991.667
83.400	3983.333
83.420	3887.500
83.440	3987.500
83.460	3825.000
83.480	3862.500
83.500	3954.167
83.520	3991.667
83.540	3950.000
83.560	3833.333
83.580	4012.500
83.600	3883.333
83.620	3887.500
83.640	3891.667
83.660	4037.500
83.680	4120.833
83.700	4004.167
83.720	3725.000
83.740	3916.667
83.760	4250.000
83.780	4004.167
83.800	4162.500
83.820	4087.500
83.840	3862.500
83.860	3945.833
83.880	3904.167
83.900	4108.333
83.920	4170.833
83.940	4079.167
83.960	4112.500
83.980	4104.167
84.000	3937.500
84.020	4054.167
84.040	3966.667
84.060	4183.333
84.080	4033.333
84.100	4250.000
84.120	4129.167
84.140	4283.333
84.160	4104.167
84.180	4120.833
84.200	4070.833
84.220	4025.000
84.240	3925.000
84.260	4141.667
84.280	4025.000
84.300	3954.167
84.320	4154.167
84.340	4087.500
84.360	4029.167
84.380	3966.667
84.400	4083.333
84.420	3883.333
84.440	3945.833
84.460	3883.333
84.480	4012.500
84.500	4154.167
84.520	3845.833
84.540	4045.833
84.560	3816.667
84.580	4045.833
84.600	4100.000
84.620	3966.667
84.640	3950.000
84.660	3920.833
84.680	4066.667
84.700	4162.500
84.720	4150.000
84.740	4108.333
84.760	4320.833
84.780	4375.000
84.800	4054.167
84.820	4041.667
84.840	4129.167
84.860	3962.500
84.880	4025.000
84.900	3845.833
84.920	4075.000
84.940	4250.000
84.960	4258.333
84.980	4237.500
85.000	4250.000
85.020	4187.500
85.040	4195.833
85.060	4029.167
85.080	4100.000
85.100	3958.333
85.120	4037.500
85.140	4079.167
85.160	3987.500
85.180	3920.833
85.200	4062.500
85.220	3904.167
85.240	3929.167
85.260	3875.000
85.280	3908.333
85.300	3916.667
85.320	3854.167
85.340	3787.500
85.360	3854.167
85.380	3812.500
85.400	3850.000
85.420	3745.833
85.440	3854.167
85.460	3900.000
85.480	3795.833
85.500	3695.833
85.520	3716.667
85.540	3795.833
85.560	3912.500
85.580	4054.167
85.600	3887.500
85.620	3666.667
85.640	3833.333
85.660	3779.167
85.680	3841.667
85.700	3904.167
85.720	3733.333
85.740	3970.833
85.760	3745.833
85.780	3970.833
85.800	4025.000
85.820	3787.500
85.840	3854.167
85.860	3941.667
85.880	3995.833
85.900	3816.667
85.920	3850.000
85.940	3791.667
85.960	4079.167
85.980	3879.167
86.000	3712.500
86.020	4029.167
86.040	3970.833
86.060	3695.833
86.080	3912.500
86.100	3937.500
86.120	3966.667
86.140	3829.167
86.160	3737.500
86.180	3666.667
86.200	3900.000
86.220	3762.500
86.240	3650.000
86.260	3737.500
86.280	3783.333
86.300	3845.833
86.320	3845.833
86.340	4116.667
86.360	3887.500
86.380	3641.667
86.400	3733.333
86.420	4104.167
86.440	3891.667
86.460	3679.167
86.480	3645.833
86.500	3691.667
86.520	3779.167
86.540	3858.333
86.560	3841.667
86.580	3754.167
86.600	3716.667
86.620	3783.333
86.640	3750.000
86.660	3950.000
86.680	3775.000
86.700	3595.833
86.720	3812.500
86.740	3666.667
86.760	3670.833
86.780	3708.333
86.800	3729.167
86.820	3733.333
86.840	3820.833
86.860	3791.667
86.880	3691.667
86.900	3812.500
86.920	3725.000
86.940	3850.000
86.960	3862.500
86.980	3883.333
87.000	3787.500
87.020	3954.167
87.040	3870.833
87.060	3862.500
87.080	3812.500
87.100	3700.000
87.120	3854.167
87.140	3775.000
87.160	3754.167
87.180	3895.833
87.200	3900.000
87.220	3795.833
87.240	3787.500
87.260	3904.167
87.280	3654.167
87.300	3658.333
87.320	3829.167
87.340	3808.333
87.360	3691.667
87.380	3829.167
87.400	3875.000
87.420	3545.833
87.440	3970.833
87.460	3958.333
87.480	3708.333
87.500	3825.000
87.520	3795.833
87.540	3720.833
87.560	3716.667
87.580	3658.333
87.600	3866.667
87.620	3737.500
87.640	3700.000
87.660	3733.333
87.680	3804.167
87.700	3854.167
87.720	3875.000
87.740	3829.167
87.760	3700.000
87.780	3679.167
87.800	3816.667
87.820	3766.667
87.840	3887.500
87.860	3950.000
87.880	3745.833
87.900	3791.667
87.920	3804.167
87.940	3795.833
87.960	3654.167
87.980	3570.833
88.000	3741.667
88.020	3729.167
88.040	3595.833
88.060	3845.833
88.080	3920.833
88.100	3675.000
88.120	3750.000
88.140	3662.500
88.160	3758.333
88.180	3750.000
88.200	3912.500
88.220	3737.500
88.240	3708.333
88.260	3925.000
88.280	3933.333
88.300	4012.500
88.320	3925.000
88.340	3979.167
88.360	4020.833
88.380	3625.000
88.400	3829.167
88.420	3950.000
88.440	3854.167
88.460	3862.500
88.480	3704.167
88.500	3891.667
88.520	3704.167
88.540	3779.167
88.560	3829.167
88.580	3754.167
88.600	3750.000
88.620	3612.500
88.640	3920.833
88.660	3958.333
88.680	3704.167
88.700	3845.833
88.720	3870.833
88.740	3900.000
88.760	4054.167
88.780	3891.667
88.800	3858.333
88.820	3766.667
88.840	3983.333
88.860	3916.667
88.880	3775.000
88.900	3825.000
88.920	3879.167
88.940	3783.333
88.960	3829.167
88.980	3808.333
89.000	3925.000
89.020	3916.667
89.040	4020.833
89.060	3854.167
89.080	4154.167
89.100	4012.500
89.120	4145.833
89.140	4037.500
89.160	4333.333
89.180	4237.500
89.200	4020.833
89.220	4125.000
89.240	4241.667
89.260	4458.333
89.280	4587.500
89.300	4520.833
89.320	4800.000
89.340	5133.333
89.360	5566.667
89.380	6141.667
89.400	6754.167
89.420	7854.167
89.440	8766.667
89.460	10375.000
89.480	10641.667
89.500	11462.500
89.520	10858.333
89.540	9995.833
89.560	8525.000
89.580	7533.333
89.600	6795.833
89.620	6170.833
89.640	6020.833
89.660	6012.500
89.680	6200.000
89.700	6400.000
89.720	6870.833
89.740	7691.667
89.760	8079.167
89.780	8429.167
89.800	8070.833
89.820	7575.000
89.840	6804.167
89.860	6408.333
89.880	5741.667
89.900	5200.000
89.920	4941.667
89.940	4758.333
89.960	4516.667
89.980	4266.667
90.000	4358.333
90.020	4391.667
90.040	4433.333
90.060	4325.000
90.080	4179.167
90.100	4312.500
90.120	4075.000
90.140	3979.167
90.160	3916.667
90.180	3808.333
90.200	4058.333
90.220	3891.667
90.240	3845.833
90.260	3862.500
90.280	3608.333
90.300	3812.500
90.320	3541.667
90.340	3787.500
90.360	3637.500
90.380	3700.000
90.400	3791.667
90.420	3837.500
90.440	3825.000
90.460	3883.333
90.480	3695.833
90.500	3562.500
90.520	3687.500
90.540	3979.167
90.560	3662.500
90.580	3704.167
90.600	3779.167
90.620	3704.167
90.640	3629.167
90.660	3712.500
90.680	3704.167
90.700	3858.333
90.720	3662.500
90.740	3650.000
90.760	3483.333
90.780	4045.833
90.800	3754.167
90.820	3616.667
90.840	3791.667
90.860	3862.500
90.880	3670.833
90.900	3691.667
90.920	3787.500
90.940	3812.500
90.960	3625.000
90.980	3720.833
91.000	3545.833
91.020	3850.000
91.040	3766.667
91.060	3745.833
91.080	3837.500
91.100	3645.833
91.120	3725.000
91.140	3812.500
91.160	3758.333
91.180	3541.667
91.200	3816.667
91.220	3637.500
91.240	3495.833
91.260	3775.000
91.280	3591.667
91.300	3883.333
91.320	3504.167
91.340	3616.667
91.360	3416.667
91.380	3870.833
91.400	3741.667
91.420	3791.667
91.440	3929.167
91.460	3791.667
91.480	3558.333
91.500	3787.500
91.520	3808.333
91.540	3625.000
91.560	3754.167
91.580	3679.167
91.600	3800.000
91.620	3737.500
91.640	3733.333
91.660	3737.500
91.680	3762.500
91.700	3733.333
91.720	3658.333
91.740	3733.333
91.760	3595.833
91.780	3545.833
91.800	3566.667
91.820	3733.333
91.840	3633.333
91.860	3629.167
91.880	3758.333
91.900	3725.000
91.920	3766.667
91.940	3870.833
91.960	3825.000
91.980	3775.000
92.000	3870.833
92.020	3916.667
92.040	3695.833
92.060	3770.833
92.080	3729.167
92.100	3850.000
92.120	3795.833
92.140	3837.500
92.160	3687.500
92.180	3758.333
92.200	3729.167
92.220	3775.000
92.240	3850.000
92.260	3562.500
92.280	3566.667
92.300	3816.667
92.320	3733.333
92.340	3816.667
92.360	3575.000
92.380	3629.167
92.400	3779.167
92.420	3708.333
92.440	3579.167
92.460	3566.667
92.480	3850.000
92.500	3691.667
92.520	3787.500
92.540	3458.333
92.560	3720.833
92.580	3758.333
92.600	3691.667
92.620	3775.000
92.640	3725.000
92.660	3637.500
92.680	3804.167
92.700	3825.000
92.720	3670.833
92.740	3775.000
92.760	3633.333
92.780	3658.333
92.800	3720.833
92.820	3916.667
92.840	3950.000
92.860	3929.167
92.880	3820.833
92.900	3800.000
92.920	3704.167
92.940	3745.833
92.960	3529.167
92.980	3766.667
93.000	3737.500
93.020	3804.167
93.040	3745.833
93.060	3666.667
93.080	3762.500
93.100	3720.833
93.120	3791.667
93.140	3883.333
93.160	3391.667
93.180	3695.833
93.200	3554.167
93.220	3712.500
93.240	3695.833
93.260	3570.833
93.280	3916.667
93.300	3520.833
93.320	3670.833
93.340	3791.667
93.360	3675.000
93.380	3533.333
93.400	3687.500
93.420	3895.833
93.440	3704.167
93.460	3700.000
93.480	3637.500
93.500	3470.833
93.520	3700.000
93.540	3833.333
93.560	3629.167
93.580	3825.000
93.600	3733.333
93.620	3741.667
93.640	3716.667
93.660	3575.000
93.680	3670.833
93.700	3762.500
93.720	3791.667
93.740	3754.167
93.760	3670.833
93.780	3554.167
93.800	3545.833
93.820	3750.000
93.840	3450.000
93.860	3600.000
93.880	3550.000
93.900	3725.000
93.920	3775.000
93.940	3533.333
93.960	3687.500
93.980	3720.833
94.000	3754.167
94.020	3625.000
94.040	3745.833
94.060	3762.500
94.080	3700.000
94.100	3804.167
94.120	3750.000
94.140	3687.500
94.160	3587.500
94.180	3550.000
94.200	3629.167
94.220	3783.333
94.240	3837.500
94.260	3787.500
94.280	3808.333
94.300	3883.333
94.320	3995.833
94.340	3870.833
94.360	4245.833
94.380	3937.500
94.400	3566.667
94.420	3687.500
94.440	3537.500
94.460	3683.333
94.480	3637.500
94.500	3716.667
94.520	3716.667
94.540	3804.167
94.560	3812.500
94.580	3625.000
94.600	3812.500
94.620	3779.167
94.640	3908.333
94.660	3920.833
94.680	3929.167
94.700	3770.833
94.720	3766.667
94.740	3704.167
94.760	3837.500
94.780	3691.667
94.800	3687.500
94.820	3708.333
94.840	3650.000
94.860	3570.833
94.880	3787.500
94.900	3487.500
94.920	3604.167
94.940	3770.833
94.960	3637.500
94.980	3662.500
95.000	3737.500
95.020	3845.833
95.040	3541.667
95.060	3595.833
95.080	3725.000
95.100	3733.333
95.120	3616.667
95.140	3608.333
95.160	3354.167
95.180	3420.833
95.200	3779.167
95.220	3770.833
95.240	3729.167
95.260	3641.667
95.280	3675.000
95.300	3479.167
95.320	3529.167
95.340	3804.167
95.360	3708.333
95.380	3487.500
95.400	3391.667
95.420	3683.333
95.440	3816.667
95.460	3754.167
95.480	3616.667
95.500	3629.167
95.520	3750.000
95.540	3520.833
95.560	3591.667
95.580	3712.500
95.600	3966.667
95.620	3950.000
95.640	3854.167
95.660	3625.000
95.680	3533.333
95.700	3725.000
95.720	3733.333
95.740	3541.667
95.760	3541.667
95.780	3775.000
95.800	3691.667
95.820	3633.333
95.840	3837.500
95.860	3812.500
95.880	3550.000
95.900	3512.500
95.920	3770.833
95.940	3862.500
95.960	3695.833
95.980	3695.833
96.000	3762.500
96.020	3741.667
96.040	3679.167
96.060	3600.000
96.080	3825.000
96.100	3545.833
96.120	3758.333
96.140	3683.333
96.160	3741.667
96.180	3708.333
96.200	3745.833
96.220	3595.833
96.240	3616.667
96.260	3837.500
96.280	3700.000
96.300	3666.667
96.320	3716.667
96.340	3820.833
96.360	3791.667
96.380	3462.500
96.400	3445.833
96.420	3766.667
96.440	3791.667
96.460	3683.333
96.480	3700.000
96.500	3479.167
96.520	3562.500
96.540	3633.333
96.560	3625.000
96.580	3695.833
96.600	3800.000
96.620	3729.167
96.640	3616.667
96.660	3725.000
96.680	3775.000
96.700	3750.000
96.720	3666.667
96.740	3787.500
96.760	3725.000
96.780	3645.833
96.800	3779.167
96.820	3779.167
96.840	3591.667
96.860	3766.667
96.880	3625.000
96.900	3754.167
96.920	3775.000
96.940	3825.000
96.960	3683.333
96.980	3883.333
97.000	3733.333
97.020	3725.000
97.040	3679.167
97.060	3520.833
97.080	3729.167
97.100	3808.333
97.120	3616.667
97.140	3766.667
97.160	3637.500
97.180	3600.000
97.200	3716.667
97.220	3791.667
97.240	3616.667
97.260	3733.333
97.280	3729.167
97.300	3729.167
97.320	3733.333
97.340	3745.833
97.360	3758.333
97.380	3908.333
97.400	3775.000
97.420	3829.167
97.440	3800.000
97.460	3870.833
97.480	4045.833
97.500	3762.500
97.520	3783.333
97.540	3800.000
97.560	3820.833
97.580	3745.833
97.600	3800.000
97.620	3733.333
97.640	3891.667
97.660	3829.167
97.680	3808.333
97.700	3695.833
97.720	3804.167
97.740	3650.000
97.760	3616.667
97.780	3716.667
97.800	3691.667
97.820	3745.833
97.840	3845.833
97.860	3775.000
97.880	3866.667
97.900	3816.667
97.920	3720.833
97.940	3933.333
97.960	3887.500
97.980	3820.833
98.000	3954.167
98.020	3900.000
98.040	3866.667
98.060	3850.000
98.080	4000.000
98.100	3983.333
98.120	3854.167
98.140	3904.167
98.160	4104.167
98.180	3941.667
98.200	3991.667
98.220	4116.667
98.240	3916.667
98.260	4070.833
98.280	4083.333
98.300	4033.333
98.320	3991.667
98.340	4062.500
98.360	4162.500
98.380	4095.833
98.400	4104.167
98.420	4079.167
98.440	4012.500
98.460	4125.000
98.480	4137.500
98.500	4183.333
98.520	4350.000
98.540	4283.333
98.560	4479.167
98.580	4462.500
98.600	4687.500
98.620	4475.000
98.640	4466.667
98.660	4458.333
98.680	4291.667
98.700	4283.333
98.720	4050.000
98.740	4070.833
98.760	4175.000
98.780	4050.000
98.800	4200.000
98.820	4129.167
98.840	4258.333
98.860	4170.833
98.880	4337.500
98.900	4295.833
98.920	4291.667
98.940	4062.500
98.960	4204.167
98.980	4387.500
99.000	4079.167
99.020	4204.167
99.040	4137.500
99.060	4162.500
99.080	4354.167
99.100	4391.667
99.120	4591.667
99.140	4545.833
99.160	4670.833
99.180	4754.167
99.200	4545.833
99.220	4341.667
99.240	4254.167
99.260	4154.167
99.280	4283.333
99.300	4016.667
99.320	3937.500
99.340	3745.833
99.360	3866.667
99.380	4058.333
99.400	4058.333
99.420	4004.167
99.440	4150.000
99.460	4312.500
99.480	4362.500
99.500	4500.000
99.520	4408.333
99.540	4429.167
99.560	4316.667
99.580	4120.833
99.600	3937.500
99.620	3854.167
99.640	3837.500
99.660	3870.833
99.680	3883.333
99.700	3962.500
99.720	3945.833
99.740	3900.000
99.760	3750.000
99.780	3825.000
99.800	3770.833
99.820	3737.500
99.840	3937.500
99.860	4062.500
99.880	3937.500
99.900	3808.333
99.920	3708.333
99.940	3708.333
99.960	3708.333
99.980	3708.333
100.000	3708.333
