5.000	2637.500
5.020	2487.500
5.040	2562.500
5.060	2658.333
5.080	2587.500
5.100	2516.667
5.120	2500.000
5.140	2625.000
5.160	2608.333
5.180	2500.000
5.200	2612.500
5.220	2654.167
5.240	2670.833
5.260	2625.000
5.280	2520.833
5.300	2458.333
5.320	2508.333
5.340	2620.833
5.360	2650.000
5.380	2683.333
5.400	2670.833
5.420	2650.000
5.440	2704.167
5.460	2537.500
5.480	2550.000
5.500	2604.167
5.520	2608.333
5.540	2579.167
5.560	2629.167
5.580	2425.000
5.600	2300.000
5.620	2470.833
5.640	2545.833
5.660	2495.833
5.680	2550.000
5.700	2512.500
5.720	2441.667
5.740	2454.167
5.760	2370.833
5.780	2429.167
5.800	2420.833
5.820	2466.667
5.840	2433.333
5.860	2525.000
5.880	2433.333
5.900	2300.000
5.920	2370.833
5.940	2495.833
5.960	2475.000
5.980	2466.667
6.000	2541.667
6.020	2512.500
6.040	2475.000
6.060	2529.167
6.080	2437.500
6.100	2333.333
6.120	2295.833
6.140	2408.333
6.160	2462.500
6.180	2366.667
6.200	2270.833
6.220	2325.000
6.240	2400.000
6.260	2275.000
6.280	2241.667
6.300	2308.333
6.320	2383.333
6.340	2387.500
6.360	2337.500
6.380	2275.000
6.400	2358.333
6.420	2416.667
6.440	2387.500
6.460	2375.000
6.480	2445.833
6.500	2354.167
6.520	2429.167
6.540	2475.000
6.560	2408.333
6.580	2275.000
6.600	2333.333
6.620	2370.833
6.640	2441.667
6.660	2450.000
6.680	2229.167
6.700	2266.667
6.720	2291.667
6.740	2362.500
6.760	2470.833
6.780	2462.500
6.800	2270.833
6.820	2220.833
6.840	2229.167
6.860	2366.667
6.880	2379.167
6.900	2345.833
6.920	2416.667
6.940	2387.500
6.960	2300.000
6.980	2308.333
7.000	2308.333
7.020	2262.500
7.040	2245.833
7.060	2233.333
7.080	2250.000
7.100	2429.167
7.120	2291.667
7.140	2179.167
7.160	2287.500
7.180	2408.333
7.200	2387.500
7.220	2329.167
7.240	2283.333
7.260	2304.167
7.280	2250.000
7.300	2212.500
7.320	2345.833
7.340	2350.000
7.360	2283.333
7.380	2266.667
7.400	2187.500
7.420	2162.500
7.440	2166.667
7.460	2304.167
7.480	2304.167
7.500	2304.167
7.520	2379.167
7.540	2491.667
7.560	2408.333
7.580	2295.833
7.600	2391.667
7.620	2395.833
7.640	2225.000
7.660	2229.167
7.680	2229.167
7.700	2245.833
7.720	2312.500
7.740	2220.833
7.760	2191.667
7.780	2262.500
7.800	2279.167
7.820	2283.333
7.840	2229.167
7.860	2287.500
7.880	2266.667
7.900	2266.667
7.920	2445.833
7.940	2366.667
7.960	2216.667
7.980	2229.167
8.000	2225.000
8.020	2200.000
8.040	2291.667
8.060	2200.000
8.080	2262.500
8.100	2329.167
8.120	2166.667
8.140	2200.000
8.160	2254.167
8.180	2287.500
8.200	2354.167
8.220	2375.000
8.240	2270.833
8.260	2262.500
8.280	2204.167
8.300	2250.000
8.320	2283.333
8.340	2241.667
8.360	2212.500
8.380	2200.000
8.400	2295.833
8.420	2308.333
8.440	2200.000
8.460	2387.500
8.480	2379.167
8.500	2320.833
8.520	2387.500
8.540	2337.500
8.560	2233.333
8.580	2162.500
8.600	2287.500
8.620	2295.833
8.640	2233.333
8.660	2287.500
8.680	2254.167
8.700	2250.000
8.720	2300.000
8.740	2245.833
8.760	2300.000
8.780	2325.000
8.800	2441.667
8.820	2512.500
8.840	2345.833
8.860	2412.500
8.880	2354.167
8.900	2204.167
8.920	2250.000
8.940	2250.000
8.960	2400.000
8.980	2337.500
9.000	2366.667
9.020	2437.500
9.040	2354.167
9.060	2279.167
9.080	2254.167
9.100	2329.167
9.120	2362.500
9.140	2350.000
9.160	2325.000
9.180	2337.500
9.200	2316.667
9.220	2254.167
9.240	2220.833
9.260	2320.833
9.280	2383.333
9.300	2316.667
9.320	2245.833
9.340	2300.000
9.360	2445.833
9.380	2279.167
9.400	2220.833
9.420	2341.667
9.440	2341.667
9.460	2375.000
9.480	2379.167
9.500	2216.667
9.520	2250.000
9.540	2354.167
9.560	2383.333
9.580	2316.667
9.600	2350.000
9.620	2387.500
9.640	2433.333
9.660	2366.667
9.680	2325.000
9.700	2341.667
9.720	2362.500
9.740	2337.500
9.760	2337.500
9.780	2325.000
9.800	2350.000
9.820	2441.667
9.840	2383.333
9.860	2400.000
9.880	2454.167
9.900	2320.833
9.920	2275.000
9.940	2404.167
9.960	2375.000
9.980	2375.000
10.000	2375.000
10.020	2425.000
10.040	2404.167
10.060	2379.167
10.080	2362.500
10.100	2312.500
10.120	2312.500
10.140	2320.833
10.160	2345.833
10.180	2362.500
10.200	2295.833
10.220	2366.667
10.240	2279.167
10.260	2429.167
10.280	2391.667
10.300	2345.833
10.320	2375.000
10.340	2441.667
10.360	2458.333
10.380	2437.500
10.400	2458.333
10.420	2341.667
10.440	2429.167
10.460	2483.333
10.480	2350.000
10.500	2375.000
10.520	2387.500
10.540	2554.167
10.560	2591.667
10.580	2420.833
10.600	2483.333
10.620	2587.500
10.640	2508.333
10.660	2370.833
10.680	2341.667
10.700	2470.833
10.720	2525.000
10.740	2425.000
10.760	2437.500
10.780	2487.500
10.800	2483.333
10.820	2558.333
10.840	2512.500
10.860	2441.667
10.880	2316.667
10.900	2416.667
10.920	2541.667
10.940	2487.500
10.960	2487.500
10.980	2562.500
11.000	2508.333
11.020	2458.333
11.040	2420.833
11.060	2495.833
11.080	2595.833
11.100	2537.500
11.120	2454.167
11.140	2525.000
11.160	2483.333
11.180	2566.667
11.200	2679.167
11.220	2595.833
11.240	2520.833
11.260	2683.333
11.280	2725.000
11.300	2637.500
11.320	2608.333
11.340	2495.833
11.360	2508.333
11.380	2525.000
11.400	2466.667
11.420	2533.333
11.440	2583.333
11.460	2570.833
11.480	2529.167
11.500	2487.500
11.520	2525.000
11.540	2550.000
11.560	2516.667
11.580	2500.000
11.600	2554.167
11.620	2508.333
11.640	2516.667
11.660	2529.167
11.680	2558.333
11.700	2566.667
11.720	2666.667
11.740	2608.333
11.760	2587.500
11.780	2537.500
11.800	2645.833
11.820	2604.167
11.840	2683.333
11.860	2554.167
11.880	2691.667
11.900	2604.167
11.920	2533.333
11.940	2670.833
11.960	2587.500
11.980	2625.000
12.000	2562.500
12.020	2533.333
12.040	2533.333
12.060	2466.667
12.080	2520.833
12.100	2554.167
12.120	2658.333
12.140	2741.667
12.160	2716.667
12.180	2629.167
12.200	2616.667
12.220	2708.333
12.240	2695.833
12.260	2716.667
12.280	2812.500
12.300	2641.667
12.320	2587.500
12.340	2533.333
12.360	2625.000
12.380	2641.667
12.400	2695.833
12.420	2695.833
12.440	2712.500
12.460	2695.833
12.480	2641.667
12.500	2666.667
12.520	2558.333
12.540	2612.500
12.560	2687.500
12.580	2741.667
12.600	2725.000
12.620	2641.667
12.640	2620.833
12.660	2637.500
12.680	2695.833
12.700	2829.167
12.720	2800.000
12.740	2616.667
12.760	2720.833
12.780	2808.333
12.800	2741.667
12.820	2737.500
12.840	2775.000
12.860	2729.167
12.880	2804.167
12.900	2650.000
12.920	2620.833
12.940	2645.833
12.960	2650.000
12.980	2683.333
13.000	2779.167
13.020	2729.167
13.040	2766.667
13.060	2741.667
13.080	2675.000
13.100	2604.167
13.120	2712.500
13.140	2679.167
13.160	2633.333
13.180	2750.000
13.200	2633.333
13.220	2679.167
13.240	2625.000
13.260	2629.167
13.280	2658.333
13.300	2633.333
13.320	2629.167
13.340	2662.500
13.360	2750.000
13.380	2791.667
13.400	2687.500
13.420	2695.833
13.440	2683.333
13.460	2666.667
13.480	2687.500
13.500	2737.500
13.520	2716.667
13.540	2741.667
13.560	2770.833
13.580	2695.833
13.600	2637.500
13.620	2583.333
13.640	2558.333
13.660	2675.000
13.680	2641.667
13.700	2666.667
13.720	2645.833
13.740	2670.833
13.760	2800.000
13.780	2750.000
13.800	2808.333
13.820	2675.000
13.840	2816.667
13.860	2904.167
13.880	2662.500
13.900	2662.500
13.920	2633.333
13.940	2641.667
13.960	2704.167
13.980	2629.167
14.000	2583.333
14.020	2675.000
14.040	2754.167
14.060	2845.833
14.080	2812.500
14.100	2816.667
14.120	2829.167
14.140	2945.833
14.160	2912.500
14.180	2741.667
14.200	2704.167
14.220	2754.167
14.240	2866.667
14.260	2833.333
14.280	2770.833
14.300	2787.500
14.320	2829.167
14.340	2733.333
14.360	2791.667
14.380	2754.167
14.400	2645.833
14.420	2637.500
14.440	2766.667
14.460	2737.500
14.480	2833.333
14.500	2820.833
14.520	2812.500
14.540	2875.000
14.560	2820.833
14.580	2875.000
14.600	2933.333
14.620	2837.500
14.640	2908.333
14.660	2870.833
14.680	2833.333
14.700	2904.167
14.720	3033.333
14.740	2970.833
14.760	2920.833
14.780	2883.333
14.800	2900.000
14.820	2987.500
14.840	2987.500
14.860	2837.500
14.880	2808.333
14.900	2887.500
14.920	3025.000
14.940	3025.000
14.960	2995.833
14.980	2970.833
15.000	2995.833
15.020	3233.333
15.040	3195.833
15.060	3150.000
15.080	3370.833
15.100	3612.500
15.120	3754.167
15.140	4062.500
15.160	4512.500
15.180	5079.167
15.200	5866.667
15.220	6687.500
15.240	7312.500
15.260	7354.167
15.280	7254.167
15.300	7070.833
15.320	6654.167
15.340	5937.500
15.360	5175.000
15.380	4670.833
15.400	4145.833
15.420	3758.333
15.440	3591.667
15.460	3433.333
15.480	3279.167
15.500	3183.333
15.520	3158.333
15.540	3029.167
15.560	2920.833
15.580	2904.167
15.600	3058.333
15.620	2995.833
15.640	2900.000
15.660	2991.667
15.680	3020.833
15.700	2995.833
15.720	3029.167
15.740	3079.167
15.760	2879.167
15.780	2804.167
15.800	2833.333
15.820	2766.667
15.840	2795.833
15.860	2970.833
15.880	2895.833
15.900	2870.833
15.920	2954.167
15.940	2962.500
15.960	2829.167
15.980	2895.833
16.000	2908.333
16.020	3079.167
16.040	3108.333
16.060	3004.167
16.080	2858.333
16.100	2908.333
16.120	2958.333
16.140	2920.833
16.160	2870.833
16.180	2887.500
16.200	3000.000
16.220	3012.500
16.240	2854.167
16.260	2787.500
16.280	2858.333
16.300	2908.333
16.320	2900.000
16.340	2945.833
16.360	2995.833
16.380	2966.667
16.400	2912.500
16.420	2900.000
16.440	2941.667
16.460	2829.167
16.480	2887.500
16.500	2841.667
16.520	2766.667
16.540	2775.000
16.560	2845.833
16.580	2879.167
16.600	2912.500
16.620	3041.667
16.640	2883.333
16.660	2950.000
16.680	3000.000
16.700	3033.333
16.720	2975.000
16.740	2816.667
16.760	2841.667
16.780	2837.500
16.800	2937.500
16.820	2866.667
16.840	2870.833
16.860	2950.000
16.880	2912.500
16.900	2929.167
16.920	3033.333
16.940	3050.000
16.960	2991.667
16.980	2954.167
17.000	2904.167
17.020	2800.000
17.040	2904.167
17.060	3020.833
17.080	2970.833
17.100	3070.833
17.120	3108.333
17.140	3020.833
17.160	2987.500
17.180	2920.833
17.200	2987.500
17.220	2937.500
17.240	2945.833
17.260	3020.833
17.280	2954.167
17.300	2866.667
17.320	2875.000
17.340	3079.167
17.360	2987.500
17.380	2908.333
17.400	2929.167
17.420	2966.667
17.440	3012.500
17.460	3037.500
17.480	3033.333
17.500	3054.167
17.520	3033.333
17.540	3004.167
17.560	2895.833
17.580	2983.333
17.600	3012.500
17.620	2941.667
17.640	2945.833
17.660	3045.833
17.680	3000.000
17.700	2995.833
17.720	2820.833
17.740	2845.833
17.760	2983.333
17.780	3091.667
17.800	3029.167
17.820	2979.167
17.840	2879.167
17.860	2837.500
17.880	2933.333
17.900	3000.000
17.920	2970.833
17.940	2916.667
17.960	2945.833
17.980	3008.333
18.000	3162.500
18.020	3200.000
18.040	2979.167
18.060	2933.333
18.080	3041.667
18.100	2941.667
18.120	2912.500
18.140	2862.500
18.160	2912.500
18.180	3079.167
18.200	3125.000
18.220	3112.500
18.240	3058.333
18.260	2950.000
18.280	3095.833
18.300	3220.833
18.320	3075.000
18.340	3154.167
18.360	3316.667
18.380	3258.333
18.400	3195.833
18.420	3245.833
18.440	3229.167
18.460	3254.167
18.480	3408.333
18.500	3500.000
18.520	3570.833
18.540	3662.500
18.560	3570.833
18.580	3541.667
18.600	3504.167
18.620	3595.833
18.640	3704.167
18.660	3641.667
18.680	3695.833
18.700	3966.667
18.720	4216.667
18.740	4441.667
18.760	4954.167
18.780	5625.000
18.800	6750.000
18.820	8254.167
18.840	10225.000
18.860	12887.500
18.880	16350.000
18.900	20200.000
18.920	23104.167
18.940	24141.667
18.960	23062.500
18.980	20945.833
19.000	17645.833
19.020	13862.500
19.040	10725.000
19.060	8325.000
19.080	6700.000
19.100	5608.333
19.120	4850.000
19.140	4383.333
19.160	4137.500
19.180	3958.333
19.200	3916.667
19.220	3787.500
19.240	3800.000
19.260	3654.167
19.280	3654.167
19.300	3516.667
19.320	3508.333
19.340	3433.333
19.360	3354.167
19.380	3408.333
19.400	3408.333
19.420	3233.333
19.440	3175.000
19.460	3091.667
19.480	3079.167
19.500	3145.833
19.520	3229.167
19.540	3266.667
19.560	3241.667
19.580	3125.000
19.600	3183.333
19.620	3241.667
19.640	3333.333
19.660	3283.333
19.680	3162.500
19.700	3245.833
19.720	3195.833
19.740	3150.000
19.760	3154.167
19.780	3279.167
19.800	3179.167
19.820	3150.000
19.840	3262.500
19.860	3137.500
19.880	3037.500
19.900	3054.167
19.920	3033.333
19.940	3079.167
19.960	3162.500
19.980	3091.667
20.000	3175.000
20.020	3216.667
20.040	3145.833
20.060	3212.500
20.080	3204.167
20.100	3258.333
20.120	3329.167
20.140	3300.000
20.160	3150.000
20.180	3133.333
20.200	3154.167
20.220	3308.333
20.240	3291.667
20.260	3254.167
20.280	3229.167
20.300	3187.500
20.320	3179.167
20.340	3083.333
20.360	3100.000
20.380	3162.500
20.400	3212.500
20.420	3104.167
20.440	3087.500
20.460	3150.000
20.480	3141.667
20.500	3095.833
20.520	3179.167
20.540	3150.000
20.560	3154.167
20.580	3275.000
20.600	3258.333
20.620	3237.500
20.640	3229.167
20.660	3195.833
20.680	3212.500
20.700	3225.000
20.720	3091.667
20.740	3237.500
20.760	3270.833
20.780	3208.333
20.800	3237.500
20.820	3233.333
20.840	3266.667
20.860	3254.167
20.880	3083.333
20.900	3170.833
20.920	3283.333
20.940	3112.500
20.960	3137.500
20.980	3245.833
21.000	3300.000
21.020	3250.000
21.040	3070.833
21.060	3041.667
21.080	3212.500
21.100	3200.000
21.120	3270.833
21.140	3254.167
21.160	3179.167
21.180	3179.167
21.200	3120.833
21.220	3245.833
21.240	3216.667
21.260	3150.000
21.280	3270.833
21.300	3225.000
21.320	3275.000
21.340	3208.333
21.360	3087.500
21.380	3245.833
21.400	3225.000
21.420	3187.500
21.440	3204.167
21.460	3262.500
21.480	3250.000
21.500	3341.667
21.520	3295.833
21.540	3125.000
21.560	3204.167
21.580	3237.500
21.600	3200.000
21.620	3225.000
21.640	3300.000
21.660	3220.833
21.680	3237.500
21.700	3262.500
21.720	3250.000
21.740	3212.500
21.760	3245.833
21.780	3325.000
21.800	3304.167
21.820	3191.667
21.840	3279.167
21.860	3300.000
21.880	3283.333
21.900	3283.333
21.920	3295.833
21.940	3370.833
21.960	3325.000
21.980	3229.167
22.000	3250.000
22.020	3233.333
22.040	3166.667
22.060	3154.167
22.080	3187.500
22.100	3254.167
22.120	3225.000
22.140	3141.667
22.160	3204.167
22.180	3245.833
22.200	3237.500
22.220	3216.667
22.240	3241.667
22.260	3108.333
22.280	3170.833
22.300	3320.833
22.320	3400.000
22.340	3441.667
22.360	3420.833
22.380	3304.167
22.400	3320.833
22.420	3370.833
22.440	3316.667
22.460	3237.500
22.480	3375.000
22.500	3479.167
22.520	3462.500
22.540	3520.833
22.560	3487.500
22.580	3404.167
22.600	3412.500
22.620	3366.667
22.640	3487.500
22.660	3625.000
22.680	3670.833
22.700	3645.833
22.720	3620.833
22.740	3633.333
22.760	3808.333
22.780	3941.667
22.800	4033.333
22.820	4100.000
22.840	4162.500
22.860	4254.167
22.880	4437.500
22.900	4533.333
22.920	4616.667
22.940	4687.500
22.960	5058.333
22.980	5454.167
23.000	5800.000
23.020	6129.167
23.040	6433.333
23.060	6600.000
23.080	6650.000
23.100	6750.000
23.120	6858.333
23.140	7050.000
23.160	7154.167
23.180	7258.333
23.200	7412.500
23.220	7404.167
23.240	7291.667
23.260	7204.167
23.280	7179.167
23.300	7104.167
23.320	6929.167
23.340	6808.333
23.360	7016.667
23.380	7366.667
23.400	7612.500
23.420	7962.500
23.440	8695.833
23.460	9833.333
23.480	10683.333
23.500	11612.500
23.520	12525.000
23.540	13291.667
23.560	13741.667
23.580	13425.000
23.600	12829.167
23.620	12179.167
23.640	11183.333
23.660	10416.667
23.680	9854.167
23.700	9000.000
23.720	8712.500
23.740	8400.000
23.760	8266.667
23.780	8400.000
23.800	8650.000
23.820	9025.000
23.840	9770.833
23.860	10620.833
23.880	11533.333
23.900	12737.500
23.920	13566.667
23.940	13504.167
23.960	13312.500
23.980	12345.833
24.000	10950.000
24.020	9625.000
24.040	8387.500
24.060	7133.333
24.080	6179.167
24.100	5566.667
24.120	5050.000
24.140	4670.833
24.160	4558.333
24.180	4441.667
24.200	4416.667
24.220	4254.167
24.240	4170.833
24.260	4195.833
24.280	4195.833
24.300	4095.833
24.320	4050.000
24.340	4083.333
24.360	4008.333
24.380	3845.833
24.400	3741.667
24.420	3691.667
24.440	3770.833
24.460	3870.833
24.480	3870.833
24.500	3937.500
24.520	3866.667
24.540	3762.500
24.560	3729.167
24.580	3841.667
24.600	3908.333
24.620	3920.833
24.640	3770.833
24.660	3687.500
24.680	3708.333
24.700	3712.500
24.720	3825.000
24.740	3883.333
24.760	3983.333
24.780	3908.333
24.800	3812.500
24.820	3800.000
24.840	3983.333
24.860	4029.167
24.880	3925.000
24.900	3991.667
24.920	4083.333
24.940	4054.167
24.960	4075.000
24.980	4000.000
25.000	3966.667
25.020	4029.167
25.040	4066.667
25.060	4075.000
25.080	4108.333
25.100	4170.833
25.120	4279.167
25.140	4362.500
25.160	4366.667
25.180	4420.833
25.200	4583.333
25.220	4708.333
25.240	4895.833
25.260	4895.833
25.280	4941.667
25.300	5170.833
25.320	5566.667
25.340	5733.333
25.360	5670.833
25.380	5704.167
25.400	5991.667
25.420	6466.667
25.440	6895.833
25.460	7350.000
25.480	7591.667
25.500	7970.833
25.520	8362.500
25.540	8504.167
25.560	8966.667
25.580	9425.000
25.600	9837.500
25.620	10170.833
25.640	10191.667
25.660	10333.333
25.680	10491.667
25.700	10612.500
25.720	10191.667
25.740	9558.333
25.760	9004.167
25.780	8495.833
25.800	7754.167
25.820	7100.000
25.840	6620.833
25.860	5987.500
25.880	5408.333
25.900	5087.500
25.920	4862.500
25.940	4545.833
25.960	4316.667
25.980	4220.833
26.000	4229.167
26.020	4137.500
26.040	3858.333
26.060	3737.500
26.080	3920.833
26.100	3929.167
26.120	3812.500
26.140	3750.000
26.160	3837.500
26.180	3987.500
26.200	3937.500
26.220	3833.333
26.240	3712.500
26.260	3650.000
26.280	3645.833
26.300	3629.167
26.320	3704.167
26.340	3595.833
26.360	3650.000
26.380	3687.500
26.400	3654.167
26.420	3662.500
26.440	3658.333
26.460	3558.333
26.480	3645.833
26.500	3754.167
26.520	3754.167
26.540	3783.333
26.560	3762.500
26.580	3654.167
26.600	3670.833
26.620	3779.167
26.640	3850.000
26.660	3783.333
26.680	3762.500
26.700	3858.333
26.720	3887.500
26.740	3904.167
26.760	3816.667
26.780	3770.833
26.800	3883.333
26.820	4045.833
26.840	3954.167
26.860	3854.167
26.880	3858.333
26.900	3812.500
26.920	3770.833
26.940	3737.500
26.960	3687.500
26.980	3650.000
27.000	3650.000
27.020	3675.000
27.040	3641.667
27.060	3575.000
27.080	3604.167
27.100	3604.167
27.120	3620.833
27.140	3691.667
27.160	3550.000
27.180	3529.167
27.200	3579.167
27.220	3516.667
27.240	3587.500
27.260	3604.167
27.280	3562.500
27.300	3629.167
27.320	3566.667
27.340	3425.000
27.360	3483.333
27.380	3616.667
27.400	3583.333
27.420	3525.000
27.440	3633.333
27.460	3654.167
27.480	3562.500
27.500	3650.000
27.520	3712.500
27.540	3575.000
27.560	3587.500
27.580	3612.500
27.600	3454.167
27.620	3504.167
27.640	3554.167
27.660	3562.500
27.680	3608.333
27.700	3608.333
27.720	3662.500
27.740	3645.833
27.760	3633.333
27.780	3645.833
27.800	3704.167
27.820	3758.333
27.840	3654.167
27.860	3587.500
27.880	3633.333
27.900	3600.000
27.920	3612.500
27.940	3675.000
27.960	3566.667
27.980	3708.333
28.000	3825.000
28.020	3737.500
28.040	3808.333
28.060	3845.833
28.080	3825.000
28.100	3795.833
28.120	3720.833
28.140	3804.167
28.160	3841.667
28.180	3741.667
28.200	3787.500
28.220	3920.833
28.240	4050.000
28.260	4037.500
28.280	3966.667
28.300	3970.833
28.320	4037.500
28.340	4020.833
28.360	4108.333
28.380	4145.833
28.400	4091.667
28.420	4220.833
28.440	4291.667
28.460	4250.000
28.480	4329.167
28.500	4358.333
28.520	4337.500
28.540	4475.000
28.560	4825.000
28.580	4983.333
28.600	5050.000
28.620	5495.833
28.640	5841.667
28.660	6025.000
28.680	6387.500
28.700	6770.833
28.720	7191.667
28.740	7658.333
28.760	8075.000
28.780	8620.833
28.800	9337.500
28.820	9854.167
28.840	10100.000
28.860	10433.333
28.880	10933.333
28.900	11412.500
28.920	11791.667
28.940	12150.000
28.960	12533.333
28.980	12695.833
29.000	12758.333
29.020	12750.000
29.040	12537.500
29.060	12395.833
29.080	12320.833
29.100	12079.167
29.120	11816.667
29.140	11537.500
29.160	11370.833
29.180	11141.667
29.200	10666.667
29.220	10137.500
29.240	9745.833
29.260	9604.167
29.280	9375.000
29.300	8954.167
29.320	8770.833
29.340	8862.500
29.360	8675.000
29.380	8170.833
29.400	7941.667
29.420	7862.500
29.440	7533.333
29.460	7195.833
29.480	7041.667
29.500	6920.833
29.520	6779.167
29.540	6891.667
29.560	6783.333
29.580	6295.833
29.600	6125.000
29.620	6266.667
29.640	6216.667
29.660	6141.667
29.680	6120.833
29.700	6016.667
29.720	6016.667
29.740	6087.500
29.760	6170.833
29.780	5979.167
29.800	5979.167
29.820	6050.000
29.840	6104.167
29.860	6258.333
29.880	6354.167
29.900	6720.833
29.920	7245.833
29.940	7416.667
29.960	7908.333
29.980	9270.833
30.000	10766.667
30.020	12237.500
30.040	14116.667
30.060	16179.167
30.080	18191.667
30.100	19962.500
30.120	20954.167
30.140	21291.667
30.160	20787.500
30.180	19837.500
30.200	18816.667
30.220	17241.667
30.240	15854.167
30.260	14712.500
30.280	13125.000
30.300	11833.333
30.320	10791.667
30.340	9937.500
30.360	9166.667
30.380	8537.500
30.400	8229.167
30.420	7770.833
30.440	7270.833
30.460	6995.833
30.480	6912.500
30.500	6587.500
30.520	6237.500
30.540	6158.333
30.560	6104.167
30.580	6050.000
30.600	6204.167
30.620	6275.000
30.640	6154.167
30.660	6229.167
30.680	6337.500
30.700	6516.667
30.720	7025.000
30.740	7412.500
30.760	7541.667
30.780	7912.500
30.800	8437.500
30.820	8937.500
30.840	9537.500
30.860	10220.833
30.880	10825.000
30.900	11325.000
30.920	11462.500
30.940	11525.000
30.960	11462.500
30.980	11354.167
31.000	11262.500
31.020	10912.500
31.040	10879.167
31.060	10908.333
31.080	10875.000
31.100	10812.500
31.120	10929.167
31.140	10879.167
31.160	10812.500
31.180	11379.167
31.200	11866.667
31.220	12237.500
31.240	12754.167
31.260	13270.833
31.280	13925.000
31.300	14679.167
31.320	15333.333
31.340	15929.167
31.360	16508.333
31.380	16858.333
31.400	16700.000
31.420	16475.000
31.440	15995.833
31.460	15141.667
31.480	14375.000
31.500	13462.500
31.520	12475.000
31.540	11758.333
31.560	11375.000
31.580	11050.000
31.600	10920.833
31.620	10854.167
31.640	10654.167
31.660	10970.833
31.680	11562.500
31.700	11762.500
31.720	11812.500
31.740	11941.667
31.760	12195.833
31.780	12558.333
31.800	12483.333
31.820	12120.833
31.840	11850.000
31.860	11616.667
31.880	11258.333
31.900	10491.667
31.920	9687.500
31.940	9000.000
31.960	8250.000
31.980	7691.667
32.000	7258.333
32.020	6683.333
32.040	6204.167
32.060	5741.667
32.080	5325.000
32.100	5041.667
32.120	4754.167
32.140	4537.500
32.160	4608.333
32.180	4641.667
32.200	4579.167
32.220	4570.833
32.240	4591.667
32.260	4695.833
32.280	4808.333
32.300	4920.833
32.320	5070.833
32.340	5116.667
32.360	5412.500
32.380	6116.667
32.400	6700.000
32.420	7041.667
32.440	7079.167
32.460	6762.500
32.480	6441.667
32.500	6120.833
32.520	5841.667
32.540	5487.500
32.560	4895.833
32.580	4558.333
32.600	4462.500
32.620	4212.500
32.640	4004.167
32.660	3962.500
32.680	4129.167
32.700	4070.833
32.720	4004.167
32.740	4108.333
32.760	3979.167
32.780	3800.000
32.800	3825.000
32.820	3858.333
32.840	3879.167
32.860	3920.833
32.880	3837.500
32.900	3741.667
32.920	3812.500
32.940	3887.500
32.960	3870.833
32.980	3741.667
33.000	3754.167
33.020	3804.167
33.040	3750.000
33.060	3750.000
33.080	3708.333
33.100	3679.167
33.120	3758.333
33.140	3762.500
33.160	3775.000
33.180	3929.167
33.200	3945.833
33.220	3866.667
33.240	3887.500
33.260	3933.333
33.280	3875.000
33.300	3862.500
33.320	3916.667
33.340	3812.500
33.360	3670.833
33.380	3679.167
33.400	3829.167
33.420	3912.500
33.440	3837.500
33.460	3683.333
33.480	3708.333
33.500	3637.500
33.520	3595.833
33.540	3737.500
33.560	3737.500
33.580	3825.000
33.600	3820.833
33.620	3691.667
33.640	3779.167
33.660	3945.833
33.680	3979.167
33.700	3883.333
33.720	3950.000
33.740	3916.667
33.760	3808.333
33.780	3862.500
33.800	3816.667
33.820	3775.000
33.840	3837.500
33.860	4004.167
33.880	3962.500
33.900	3841.667
33.920	3766.667
33.940	3750.000
33.960	3858.333
33.980	3933.333
34.000	3875.000
34.020	3766.667
34.040	3762.500
34.060	3783.333
34.080	3900.000
34.100	4000.000
34.120	3991.667
34.140	3962.500
34.160	3912.500
34.180	3945.833
34.200	3962.500
34.220	3929.167
34.240	4050.000
34.260	4045.833
34.280	4016.667
34.300	3941.667
34.320	3812.500
34.340	3908.333
34.360	4154.167
34.380	4358.333
34.400	4250.000
34.420	4133.333
34.440	4200.000
34.460	4308.333
34.480	4375.000
34.500	4408.333
34.520	4441.667
34.540	4600.000
34.560	4554.167
34.580	4516.667
34.600	4525.000
34.620	4516.667
34.640	4479.167
34.660	4579.167
34.680	4770.833
34.700	4704.167
34.720	4750.000
34.740	4858.333
34.760	4837.500
34.780	4900.000
34.800	4995.833
34.820	4929.167
34.840	5012.500
34.860	5158.333
34.880	4891.667
34.900	4883.333
34.920	5037.500
34.940	5083.333
34.960	5112.500
34.980	5129.167
35.000	5233.333
35.020	5300.000
35.040	5437.500
35.060	5629.167
35.080	5708.333
35.100	5704.167
35.120	5987.500
35.140	6070.833
35.160	6233.333
35.180	6562.500
35.200	6816.667
35.220	7279.167
35.240	7645.833
35.260	8312.500
35.280	9937.500
35.300	11620.833
35.320	13354.167
35.340	15604.167
35.360	17895.833
35.380	20075.000
35.400	23404.167
35.420	28108.333
35.440	32625.000
35.460	34612.500
35.480	33170.833
35.500	29575.000
35.520	26887.500
35.540	24933.333
35.560	22366.667
35.580	19529.167
35.600	16683.333
35.620	13904.167
35.640	12204.167
35.660	11579.167
35.680	11283.333
35.700	10983.333
35.720	10962.500
35.740	11104.167
35.760	11008.333
35.780	10762.500
35.800	10662.500
35.820	10708.333
35.840	10520.833
35.860	10004.167
35.880	9745.833
35.900	9345.833
35.920	8833.333
35.940	8587.500
35.960	8350.000
35.980	7954.167
36.000	7541.667
36.020	7258.333
36.040	7000.000
36.060	6841.667
36.080	6875.000
36.100	6845.833
36.120	6712.500
36.140	6750.000
36.160	7183.333
36.180	7354.167
36.200	7750.000
36.220	8320.833
36.240	8912.500
36.260	9833.333
36.280	10725.000
36.300	11354.167
36.320	11408.333
36.340	11183.333
36.360	11125.000
36.380	10908.333
36.400	10583.333
36.420	10120.833
36.440	9504.167
36.460	9462.500
36.480	9645.833
36.500	9895.833
36.520	10383.333
36.540	11158.333
36.560	11883.333
36.580	12550.000
36.600	13520.833
36.620	14133.333
36.640	14137.500
36.660	14095.833
36.680	13491.667
36.700	12587.500
36.720	11629.167
36.740	10387.500
36.760	9466.667
36.780	8533.333
36.800	7500.000
36.820	6687.500
36.840	6233.333
36.860	5795.833
36.880	5320.833
36.900	4866.667
36.920	4704.167
36.940	4670.833
36.960	4741.667
36.980	4650.000
37.000	4370.833
37.020	4312.500
37.040	4425.000
37.060	4375.000
37.080	4304.167
37.100	4245.833
37.120	4279.167
37.140	4241.667
37.160	4225.000
37.180	4287.500
37.200	4291.667
37.220	4129.167
37.240	4062.500
37.260	4050.000
37.280	4108.333
37.300	4191.667
37.320	4150.000
37.340	4220.833
37.360	4154.167
37.380	4108.333
37.400	4254.167
37.420	4241.667
37.440	4170.833
37.460	4233.333
37.480	4183.333
37.500	4200.000
37.520	4175.000
37.540	4245.833
37.560	4308.333
37.580	4245.833
37.600	4195.833
37.620	4133.333
37.640	4233.333
37.660	4295.833
37.680	4258.333
37.700	4170.833
37.720	4270.833
37.740	4437.500
37.760	4487.500
37.780	4558.333
37.800	4475.000
37.820	4412.500
37.840	4420.833
37.860	4325.000
37.880	4400.000
37.900	4591.667
37.920	4716.667
37.940	4741.667
37.960	4641.667
37.980	4691.667
38.000	4770.833
38.020	4879.167
38.040	4954.167
38.060	4833.333
38.080	5012.500
38.100	5300.000
38.120	5404.167
38.140	5558.333
38.160	5566.667
38.180	5662.500
38.200	5666.667
38.220	5770.833
38.240	5983.333
38.260	6033.333
38.280	6062.500
38.300	6191.667
38.320	6575.000
38.340	6916.667
38.360	7320.833
38.380	7912.500
38.400	8625.000
38.420	9629.167
38.440	10962.500
38.460	12533.333
38.480	14100.000
38.500	15816.667
38.520	17775.000
38.540	19500.000
38.560	21283.333
38.580	22570.833
38.600	23837.500
38.620	25308.333
38.640	25608.333
38.660	24945.833
38.680	23091.667
38.700	20933.333
38.720	19445.833
38.740	17808.333
38.760	15991.667
38.780	14445.833
38.800	12966.667
38.820	11516.667
38.840	10550.000
38.860	9725.000
38.880	9308.333
38.900	8570.833
38.920	7895.833
38.940	7600.000
38.960	7308.333
38.980	6816.667
39.000	6283.333
39.020	6083.333
39.040	5887.500
39.060	5441.667
39.080	5291.667
39.100	5287.500
39.120	5150.000
39.140	5008.333
39.160	4754.167
39.180	4591.667
39.200	4662.500
39.220	4554.167
39.240	4466.667
39.260	4545.833
39.280	4462.500
39.300	4412.500
39.320	4450.000
39.340	4387.500
39.360	4258.333
39.380	4150.000
39.400	4066.667
39.420	4004.167
39.440	4079.167
39.460	4133.333
39.480	4141.667
39.500	4170.833
39.520	4216.667
39.540	4162.500
39.560	4229.167
39.580	4341.667
39.600	4500.000
39.620	4575.000
39.640	4541.667
39.660	4587.500
39.680	4666.667
39.700	4708.333
39.720	4762.500
39.740	4733.333
39.760	4625.000
39.780	4604.167
39.800	4662.500
39.820	4762.500
39.840	4875.000
39.860	4970.833
39.880	4850.000
39.900	4816.667
39.920	4908.333
39.940	5191.667
39.960	5333.333
39.980	5308.333
40.000	5420.833
40.020	5495.833
40.040	5362.500
40.060	5320.833
40.080	5370.833
40.100	5300.000
40.120	5387.500
40.140	5354.167
40.160	5183.333
40.180	5125.000
40.200	5154.167
40.220	5258.333
40.240	5270.833
40.260	5012.500
40.280	4787.500
40.300	4691.667
40.320	4712.500
40.340	4691.667
40.360	4529.167
40.380	4562.500
40.400	4537.500
40.420	4425.000
40.440	4366.667
40.460	4445.833
40.480	4462.500
40.500	4387.500
40.520	4329.167
40.540	4262.500
40.560	4304.167
40.580	4479.167
40.600	4420.833
40.620	4195.833
40.640	4112.500
40.660	4195.833
40.680	4183.333
40.700	4216.667
40.720	4433.333
40.740	4479.167
40.760	4470.833
40.780	4362.500
40.800	4479.167
40.820	4566.667
40.840	4700.000
40.860	4833.333
40.880	5000.000
40.900	5395.833
40.920	5662.500
40.940	6275.000
40.960	7016.667
40.980	7441.667
41.000	7929.167
41.020	8175.000
41.040	8158.333
41.060	8179.167
41.080	8204.167
41.100	7800.000
41.120	7308.333
41.140	6979.167
41.160	6679.167
41.180	6508.333
41.200	6029.167
41.220	5416.667
41.240	5108.333
41.260	4941.667
41.280	4812.500
41.300	4695.833
41.320	4550.000
41.340	4358.333
41.360	4241.667
41.380	4258.333
41.400	4166.667
41.420	4316.667
41.440	4254.167
41.460	4141.667
41.480	4220.833
41.500	4083.333
41.520	4000.000
41.540	3954.167
41.560	4029.167
41.580	4066.667
41.600	3958.333
41.620	3875.000
41.640	3800.000
41.660	3983.333
41.680	4083.333
41.700	3991.667
41.720	3991.667
41.740	3975.000
41.760	3979.167
41.780	4095.833
41.800	4037.500
41.820	4066.667
41.840	4212.500
41.860	4250.000
41.880	4204.167
41.900	4191.667
41.920	4108.333
41.940	4150.000
41.960	4183.333
41.980	4120.833
42.000	4358.333
42.020	4591.667
42.040	4295.833
42.060	4345.833
42.080	4383.333
42.100	4529.167
42.120	4612.500
42.140	4575.000
42.160	4533.333
42.180	4720.833
42.200	4895.833
42.220	4820.833
42.240	4941.667
42.260	4812.500
42.280	4895.833
42.300	4962.500
42.320	5162.500
42.340	5262.500
42.360	5062.500
42.380	5112.500
42.400	5175.000
42.420	5166.667
42.440	5225.000
42.460	5475.000
42.480	5604.167
42.500	5670.833
42.520	5608.333
42.540	5845.833
42.560	5950.000
42.580	6087.500
42.600	6095.833
42.620	6070.833
42.640	6116.667
42.660	6075.000
42.680	5962.500
42.700	6083.333
42.720	6162.500
42.740	6183.333
42.760	6100.000
42.780	5883.333
42.800	5700.000
42.820	5612.500
42.840	5395.833
42.860	5387.500
42.880	5475.000
42.900	5283.333
42.920	5100.000
42.940	4945.833
42.960	5045.833
42.980	4962.500
43.000	4979.167
43.020	4941.667
43.040	5054.167
43.060	4970.833
43.080	4966.667
43.100	5116.667
43.120	5037.500
43.140	5033.333
43.160	5066.667
43.180	4983.333
43.200	5170.833
43.220	5295.833
43.240	5062.500
43.260	5120.833
43.280	5191.667
43.300	5204.167
43.320	5104.167
43.340	5012.500
43.360	4970.833
43.380	4929.167
43.400	4970.833
43.420	4895.833
43.440	4833.333
43.460	4695.833
43.480	4550.000
43.500	4566.667
43.520	4520.833
43.540	4700.000
43.560	4783.333
43.580	4787.500
43.600	4666.667
43.620	4433.333
43.640	4429.167
43.660	4504.167
43.680	4608.333
43.700	4545.833
43.720	4379.167
43.740	4287.500
43.760	4208.333
43.780	4320.833
43.800	4537.500
43.820	4520.833
43.840	4358.333
43.860	4400.000
43.880	4450.000
43.900	4462.500
43.920	4216.667
43.940	4258.333
43.960	4254.167
43.980	4300.000
44.000	4304.167
44.020	4158.333
44.040	3966.667
44.060	3983.333
44.080	4037.500
44.100	4129.167
44.120	4225.000
44.140	4087.500
44.160	3979.167
44.180	4116.667
44.200	4262.500
44.220	4100.000
44.240	4079.167
44.260	4229.167
44.280	4220.833
44.300	4204.167
44.320	4125.000
44.340	4058.333
44.360	3962.500
44.380	4170.833
44.400	4433.333
44.420	4283.333
44.440	4250.000
44.460	4354.167
44.480	4441.667
44.500	4395.833
44.520	4387.500
44.540	4620.833
44.560	4775.000
44.580	4804.167
44.600	4933.333
44.620	5029.167
44.640	4900.000
44.660	5012.500
44.680	5029.167
44.700	4987.500
44.720	5158.333
44.740	5270.833
44.760	5387.500
44.780	5341.667
44.800	5329.167
44.820	5466.667
44.840	5454.167
44.860	5300.000
44.880	5470.833
44.900	5679.167
44.920	5720.833
44.940	5820.833
44.960	6229.167
44.980	6412.500
45.000	6325.000
45.020	6445.833
45.040	6450.000
45.060	6562.500
45.080	6504.167
45.100	6250.000
45.120	6079.167
45.140	6100.000
45.160	5966.667
45.180	5895.833
45.200	5691.667
45.220	5470.833
45.240	5170.833
45.260	4945.833
45.280	4945.833
45.300	4941.667
45.320	4933.333
45.340	4729.167
45.360	4716.667
45.380	4695.833
45.400	4600.000
45.420	4758.333
45.440	4825.000
45.460	4762.500
45.480	4779.167
45.500	4791.667
45.520	4845.833
45.540	4825.000
45.560	4787.500
45.580	4870.833
45.600	4816.667
45.620	4962.500
45.640	4995.833
45.660	4804.167
45.680	4816.667
45.700	4708.333
45.720	4704.167
45.740	4700.000
45.760	4779.167
45.780	4820.833
45.800	4608.333
45.820	4516.667
45.840	4445.833
45.860	4291.667
45.880	4170.833
45.900	4325.000
45.920	4266.667
45.940	4129.167
45.960	4183.333
45.980	4170.833
46.000	4154.167
46.020	4112.500
46.040	4079.167
46.060	3950.000
46.080	3950.000
46.100	4100.000
46.120	4333.333
46.140	4370.833
46.160	4316.667
46.180	4325.000
46.200	4383.333
46.220	4187.500
46.240	4083.333
46.260	4133.333
46.280	4070.833
46.300	4158.333
46.320	4133.333
46.340	4075.000
46.360	4066.667
46.380	4091.667
46.400	4095.833
46.420	3983.333
46.440	3883.333
46.460	3912.500
46.480	4120.833
46.500	4066.667
46.520	4012.500
46.540	4066.667
46.560	4120.833
46.580	4045.833
46.600	4012.500
46.620	4041.667
46.640	4095.833
46.660	4150.000
46.680	4229.167
46.700	4191.667
46.720	4325.000
46.740	4529.167
46.760	4358.333
46.780	4416.667
46.800	4433.333
46.820	4287.500
46.840	4245.833
46.860	4316.667
46.880	4525.000
46.900	4637.500
46.920	4570.833
46.940	4487.500
46.960	4570.833
46.980	4637.500
47.000	4604.167
47.020	4716.667
47.040	4783.333
47.060	4825.000
47.080	5000.000
47.100	5025.000
47.120	4995.833
47.140	4983.333
47.160	5075.000
47.180	5083.333
47.200	5062.500
47.220	5120.833
47.240	5183.333
47.260	5187.500
47.280	5208.333
47.300	5241.667
47.320	5179.167
47.340	5241.667
47.360	5362.500
47.380	5141.667
47.400	5008.333
47.420	5170.833
47.440	5150.000
47.460	5050.000
47.480	5008.333
47.500	5033.333
47.520	5133.333
47.540	5141.667
47.560	5116.667
47.580	5112.500
47.600	5250.000
47.620	5275.000
47.640	5133.333
47.660	4754.167
47.680	4800.000
47.700	5012.500
47.720	4916.667
47.740	4795.833
47.760	4762.500
47.780	4816.667
47.800	4670.833
47.820	4450.000
47.840	4475.000
47.860	4562.500
47.880	4541.667
47.900	4566.667
47.920	4458.333
47.940	4450.000
47.960	4487.500
47.980	4350.000
48.000	4400.000
48.020	4554.167
48.040	4558.333
48.060	4641.667
48.080	4704.167
48.100	4708.333
48.120	4850.000
48.140	4875.000
48.160	4908.333
48.180	4962.500
48.200	5008.333
48.220	5291.667
48.240	5425.000
48.260	5366.667
48.280	5550.000
48.300	5725.000
48.320	5670.833
48.340	5595.833
48.360	5512.500
48.380	5595.833
48.400	5616.667
48.420	5529.167
48.440	5479.167
48.460	5600.000
48.480	5616.667
48.500	5516.667
48.520	5670.833
48.540	5783.333
48.560	5850.000
48.580	6066.667
48.600	6295.833
48.620	6475.000
48.640	6641.667
48.660	6820.833
48.680	6970.833
48.700	6866.667
48.720	6808.333
48.740	6795.833
48.760	6720.833
48.780	6562.500
48.800	6579.167
48.820	6537.500
48.840	6316.667
48.860	6112.500
48.880	6125.000
48.900	5983.333
48.920	5929.167
48.940	5958.333
48.960	6100.000
48.980	6416.667
49.000	6450.000
49.020	6404.167
49.040	6504.167
49.060	6645.833
49.080	6837.500
49.100	6929.167
49.120	6850.000
49.140	6783.333
49.160	6887.500
49.180	6862.500
49.200	6750.000
49.220	6612.500
49.240	6483.333
49.260	6454.167
49.280	6262.500
49.300	6183.333
49.320	6212.500
49.340	6000.000
49.360	5808.333
49.380	5712.500
49.400	5716.667
49.420	5645.833
49.440	5454.167
49.460	5512.500
49.480	5404.167
49.500	5283.333
49.520	5195.833
49.540	5120.833
49.560	5170.833
49.580	5179.167
49.600	5062.500
49.620	5108.333
49.640	5129.167
49.660	4975.000
49.680	4916.667
49.700	4929.167
49.720	4904.167
49.740	4945.833
49.760	4858.333
49.780	4775.000
49.800	4716.667
49.820	4695.833
49.840	4750.000
49.860	4695.833
49.880	4704.167
49.900	4716.667
49.920	4708.333
49.940	4775.000
49.960	4725.000
49.980	4695.833
50.000	4679.167
50.020	4712.500
50.040	4650.000
50.060	4754.167
50.080	4954.167
50.100	4950.000
50.120	4720.833
50.140	4695.833
50.160	4708.333
50.180	4662.500
50.200	4779.167
50.220	4754.167
50.240	4787.500
50.260	4816.667
50.280	4825.000
50.300	4879.167
50.320	4941.667
50.340	4975.000
50.360	4858.333
50.380	4866.667
50.400	4995.833
50.420	4950.000
50.440	4950.000
50.460	4966.667
50.480	4920.833
50.500	4887.500
50.520	4775.000
50.540	4733.333
50.560	4833.333
50.580	4850.000
50.600	4891.667
50.620	4933.333
50.640	4833.333
50.660	4929.167
50.680	4895.833
50.700	4833.333
50.720	4766.667
50.740	4887.500
50.760	4816.667
50.780	4670.833
50.800	4687.500
50.820	4691.667
50.840	4679.167
50.860	4575.000
50.880	4516.667
50.900	4604.167
50.920	4558.333
50.940	4575.000
50.960	4583.333
50.980	4533.333
51.000	4545.833
51.020	4545.833
51.040	4579.167
51.060	4662.500
51.080	4595.833
51.100	4529.167
51.120	4483.333
51.140	4554.167
51.160	4575.000
51.180	4558.333
51.200	4558.333
51.220	4612.500
51.240	4741.667
51.260	4662.500
51.280	4729.167
51.300	4775.000
51.320	4675.000
51.340	4691.667
51.360	4758.333
51.380	4662.500
51.400	4491.667
51.420	4479.167
51.440	4587.500
51.460	4629.167
51.480	4445.833
51.500	4491.667
51.520	4566.667
51.540	4541.667
51.560	4612.500
51.580	4629.167
51.600	4700.000
51.620	4841.667
51.640	4850.000
51.660	4912.500
51.680	5037.500
51.700	5025.000
51.720	5000.000
51.740	5208.333
51.760	5283.333
51.780	5366.667
51.800	5462.500
51.820	5408.333
51.840	5391.667
51.860	5416.667
51.880	5437.500
51.900	5466.667
51.920	5458.333
51.940	5550.000
51.960	5570.833
51.980	5658.333
52.000	5670.833
52.020	5595.833
52.040	5533.333
52.060	5408.333
52.080	5408.333
52.100	5525.000
52.120	5641.667
52.140	5562.500
52.160	5641.667
52.180	5629.167
52.200	5479.167
52.220	5412.500
52.240	5445.833
52.260	5508.333
52.280	5537.500
52.300	5700.000
52.320	5791.667
52.340	5775.000
52.360	5725.000
52.380	5733.333
52.400	5604.167
52.420	5495.833
52.440	5679.167
52.460	5770.833
52.480	5904.167
52.500	5720.833
52.520	5400.000
52.540	5270.833
52.560	5262.500
52.580	5395.833
52.600	5520.833
52.620	5650.000
52.640	5612.500
52.660	5370.833
52.680	5366.667
52.700	5437.500
52.720	5495.833
52.740	5341.667
52.760	5362.500
52.780	5541.667
52.800	5641.667
52.820	5825.000
52.840	5758.333
52.860	5666.667
52.880	5891.667
52.900	6100.000
52.920	6041.667
52.940	6145.833
52.960	6266.667
52.980	6254.167
53.000	6441.667
53.020	6641.667
53.040	6866.667
53.060	7212.500
53.080	7562.500
53.100	7791.667
53.120	8216.667
53.140	8816.667
53.160	9162.500
53.180	9475.000
53.200	9975.000
53.220	10525.000
53.240	10875.000
53.260	11225.000
53.280	11858.333
53.300	12258.333
53.320	12708.333
53.340	13183.333
53.360	13250.000
53.380	13429.167
53.400	13508.333
53.420	13120.833
53.440	12704.167
53.460	12162.500
53.480	11662.500
53.500	11170.833
53.520	10512.500
53.540	10075.000
53.560	9570.833
53.580	8800.000
53.600	8070.833
53.620	7637.500
53.640	7120.833
53.660	6712.500
53.680	6425.000
53.700	6095.833
53.720	6029.167
53.740	5866.667
53.760	5566.667
53.780	5287.500
53.800	5087.500
53.820	5054.167
53.840	5091.667
53.860	5062.500
53.880	4850.000
53.900	4804.167
53.920	4904.167
53.940	4854.167
53.960	4750.000
53.980	4737.500
54.000	4708.333
54.020	4600.000
54.040	4604.167
54.060	4625.000
54.080	4466.667
54.100	4412.500
54.120	4520.833
54.140	4437.500
54.160	4312.500
54.180	4358.333
54.200	4408.333
54.220	4366.667
54.240	4366.667
54.260	4333.333
54.280	4162.500
54.300	4108.333
54.320	4100.000
54.340	4145.833
54.360	4162.500
54.380	4179.167
54.400	4120.833
54.420	4033.333
54.440	4187.500
54.460	4262.500
54.480	4245.833
54.500	4179.167
54.520	4212.500
54.540	4362.500
54.560	4337.500
54.580	4383.333
54.600	4354.167
54.620	4300.000
54.640	4404.167
54.660	4312.500
54.680	4275.000
54.700	4416.667
54.720	4516.667
54.740	4637.500
54.760	4595.833
54.780	4604.167
54.800	4733.333
54.820	4800.000
54.840	4900.000
54.860	4991.667
54.880	5095.833
54.900	4970.833
54.920	5045.833
54.940	5258.333
54.960	5350.000
54.980	5325.000
55.000	5416.667
55.020	5691.667
55.040	5825.000
55.060	5891.667
55.080	5950.000
55.100	6012.500
55.120	6225.000
55.140	6266.667
55.160	6379.167
55.180	6566.667
55.200	6600.000
55.220	6579.167
55.240	6354.167
55.260	6254.167
55.280	6395.833
55.300	6425.000
55.320	6366.667
55.340	6404.167
55.360	6137.500
55.380	6037.500
55.400	5975.000
55.420	5945.833
55.440	5866.667
55.460	5625.000
55.480	5395.833
55.500	5179.167
55.520	5158.333
55.540	5104.167
55.560	5000.000
55.580	4958.333
55.600	4991.667
55.620	5000.000
55.640	5000.000
55.660	5033.333
55.680	5012.500
55.700	4904.167
55.720	4854.167
55.740	4916.667
55.760	4958.333
55.780	4908.333
55.800	4954.167
55.820	5129.167
55.840	5025.000
55.860	5075.000
55.880	5204.167
55.900	5354.167
55.920	5500.000
55.940	5533.333
55.960	5533.333
55.980	5525.000
56.000	5487.500
56.020	5500.000
56.040	5745.833
56.060	5875.000
56.080	5920.833
56.100	5900.000
56.120	5866.667
56.140	5945.833
56.160	6037.500
56.180	5933.333
56.200	5854.167
56.220	5962.500
56.240	5854.167
56.260	5887.500
56.280	5991.667
56.300	5795.833
56.320	5508.333
56.340	5520.833
56.360	5691.667
56.380	5675.000
56.400	5454.167
56.420	5387.500
56.440	5387.500
56.460	5400.000
56.480	5470.833
56.500	5575.000
56.520	5458.333
56.540	5387.500
56.560	5433.333
56.580	5570.833
56.600	5633.333
56.620	5404.167
56.640	5495.833
56.660	5650.000
56.680	5566.667
56.700	5520.833
56.720	5420.833
56.740	5450.000
56.760	5550.000
56.780	5433.333
56.800	5308.333
56.820	5304.167
56.840	5183.333
56.860	5033.333
56.880	4841.667
56.900	4750.000
56.920	4745.833
56.940	4637.500
56.960	4466.667
56.980	4545.833
57.000	4570.833
57.020	4441.667
57.040	4345.833
57.060	4416.667
57.080	4416.667
57.100	4395.833
57.120	4491.667
57.140	4437.500
57.160	4375.000
57.180	4429.167
57.200	4291.667
57.220	4225.000
57.240	4350.000
57.260	4275.000
57.280	4179.167
57.300	4166.667
57.320	4137.500
57.340	4162.500
57.360	4133.333
57.380	4108.333
57.400	4129.167
57.420	4175.000
57.440	4179.167
57.460	4108.333
57.480	4116.667
57.500	4204.167
57.520	4137.500
57.540	4045.833
57.560	3954.167
57.580	3920.833
57.600	3987.500
57.620	3929.167
57.640	3850.000
57.660	3945.833
57.680	3941.667
57.700	3904.167
57.720	3870.833
57.740	3804.167
57.760	3991.667
57.780	4079.167
57.800	4041.667
57.820	3979.167
57.840	3991.667
57.860	3962.500
57.880	4058.333
57.900	4091.667
57.920	4120.833
57.940	4179.167
57.960	4187.500
57.980	4387.500
58.000	4383.333
58.020	4245.833
58.040	4345.833
58.060	4341.667
58.080	4387.500
58.100	4579.167
58.120	4679.167
58.140	4641.667
58.160	4837.500
58.180	5012.500
58.200	4925.000
58.220	4929.167
58.240	5166.667
58.260	5166.667
58.280	5158.333
58.300	5162.500
58.320	5070.833
58.340	5120.833
58.360	5212.500
58.380	5195.833
58.400	5208.333
58.420	5129.167
58.440	5062.500
58.460	5062.500
58.480	4858.333
58.500	4741.667
58.520	4658.333
58.540	4558.333
58.560	4545.833
58.580	4583.333
58.600	4737.500
58.620	4762.500
58.640	4679.167
58.660	4504.167
58.680	4404.167
58.700	4412.500
58.720	4500.000
58.740	4470.833
58.760	4445.833
58.780	4433.333
58.800	4458.333
58.820	4454.167
58.840	4429.167
58.860	4433.333
58.880	4604.167
58.900	4595.833
58.920	4462.500
58.940	4516.667
58.960	4558.333
58.980	4583.333
59.000	4612.500
59.020	4604.167
59.040	4533.333
59.060	4516.667
59.080	4633.333
59.100	4708.333
59.120	4587.500
59.140	4575.000
59.160	4633.333
59.180	4562.500
59.200	4437.500
59.220	4437.500
59.240	4520.833
59.260	4495.833
59.280	4495.833
59.300	4462.500
59.320	4475.000
59.340	4533.333
59.360	4508.333
59.380	4375.000
59.400	4304.167
59.420	4441.667
59.440	4450.000
59.460	4454.167
59.480	4500.000
59.500	4529.167
59.520	4570.833
59.540	4416.667
59.560	4270.833
59.580	4379.167
59.600	4187.500
59.620	4112.500
59.640	4258.333
59.660	4312.500
59.680	4137.500
59.700	4150.000
59.720	4225.000
59.740	4316.667
59.760	4441.667
59.780	4375.000
59.800	4158.333
59.820	4150.000
59.840	4200.000
59.860	4191.667
59.880	4166.667
59.900	4116.667
59.920	4070.833
59.940	4087.500
59.960	4050.000
59.980	4275.000
60.000	4270.833
60.020	4087.500
60.040	4212.500
60.060	4312.500
60.080	4229.167
60.100	4125.000
60.120	4220.833
60.140	4212.500
60.160	4175.000
60.180	4283.333
60.200	4370.833
60.220	4354.167
60.240	4400.000
60.260	4404.167
60.280	4329.167
60.300	4341.667
60.320	4245.833
60.340	4266.667
60.360	4425.000
60.380	4420.833
60.400	4387.500
60.420	4466.667
60.440	4475.000
60.460	4479.167
60.480	4683.333
60.500	4616.667
60.520	4691.667
60.540	4775.000
60.560	4862.500
60.580	4941.667
60.600	4795.833
60.620	4975.000
60.640	5025.000
60.660	5137.500
60.680	5370.833
60.700	5491.667
60.720	5600.000
60.740	5750.000
60.760	5654.167
60.780	5650.000
60.800	5720.833
60.820	5725.000
60.840	5904.167
60.860	5783.333
60.880	5758.333
60.900	5750.000
60.920	5754.167
60.940	5783.333
60.960	5779.167
60.980	5479.167
61.000	5508.333
61.020	5450.000
61.040	5575.000
61.060	5404.167
61.080	5395.833
61.100	5416.667
61.120	5262.500
61.140	5225.000
61.160	5450.000
61.180	5337.500
61.200	5154.167
61.220	5170.833
61.240	5154.167
61.260	5125.000
61.280	5254.167
61.300	5341.667
61.320	5470.833
61.340	5491.667
61.360	5933.333
61.380	6208.333
61.400	6520.833
61.420	6837.500
61.440	7050.000
61.460	7029.167
61.480	6791.667
61.500	6633.333
61.520	6437.500
61.540	6450.000
61.560	6529.167
61.580	6545.833
61.600	6637.500
61.620	6512.500
61.640	6270.833
61.660	6075.000
61.680	6100.000
61.700	5904.167
61.720	6000.000
61.740	5716.667
61.760	5487.500
61.780	5608.333
61.800	5370.833
61.820	5300.000
61.840	5329.167
61.860	5179.167
61.880	5187.500
61.900	5150.000
61.920	5295.833
61.940	5495.833
61.960	5412.500
61.980	5287.500
62.000	5258.333
62.020	5441.667
62.040	5529.167
62.060	5429.167
62.080	5287.500
62.100	5291.667
62.120	5450.000
62.140	5475.000
62.160	5508.333
62.180	5595.833
62.200	5625.000
62.220	5620.833
62.240	5741.667
62.260	5695.833
62.280	5791.667
62.300	6016.667
62.320	6216.667
62.340	6166.667
62.360	6270.833
62.380	6437.500
62.400	6704.167
62.420	6745.833
62.440	6658.333
62.460	6770.833
62.480	6737.500
62.500	6875.000
62.520	7112.500
62.540	7366.667
62.560	7304.167
62.580	7512.500
62.600	7716.667
62.620	7795.833
62.640	7604.167
62.660	7766.667
62.680	7670.833
62.700	7554.167
62.720	7504.167
62.740	7554.167
62.760	7345.833
62.780	7150.000
62.800	7087.500
62.820	7004.167
62.840	6716.667
62.860	6591.667
62.880	6637.500
62.900	6520.833
62.920	6225.000
62.940	6033.333
62.960	6050.000
62.980	6025.000
63.000	6100.000
63.020	6016.667
63.040	5783.333
63.060	5612.500
63.080	5645.833
63.100	5754.167
63.120	5820.833
63.140	5612.500
63.160	5729.167
63.180	5658.333
63.200	5616.667
63.220	5708.333
63.240	5845.833
63.260	5804.167
63.280	5654.167
63.300	5700.000
63.320	5770.833
63.340	5762.500
63.360	5687.500
63.380	5620.833
63.400	5545.833
63.420	5458.333
63.440	5487.500
63.460	5320.833
63.480	5179.167
63.500	5379.167
63.520	5575.000
63.540	5329.167
63.560	5166.667
63.580	5350.000
63.600	5250.000
63.620	5300.000
63.640	5312.500
63.660	5308.333
63.680	5066.667
63.700	5333.333
63.720	5250.000
63.740	5479.167
63.760	5616.667
63.780	5625.000
63.800	5691.667
63.820	5800.000
63.840	5970.833
63.860	6112.500
63.880	6558.333
63.900	6383.333
63.920	6320.833
63.940	6441.667
63.960	6441.667
63.980	6483.333
64.000	6633.333
64.020	6562.500
64.040	6450.000
64.060	6350.000
64.080	6250.000
64.100	6170.833
64.120	5900.000
64.140	6254.167
64.160	6108.333
64.180	6108.333
64.200	6100.000
64.220	5937.500
64.240	5983.333
64.260	5625.000
64.280	5525.000
64.300	5525.000
64.320	5350.000
64.340	5387.500
64.360	5441.667
64.380	5370.833
64.400	5258.333
64.420	5358.333
64.440	5083.333
64.460	5045.833
64.480	5091.667
64.500	4979.167
64.520	4925.000
64.540	4845.833
64.560	4891.667
64.580	4879.167
64.600	4941.667
64.620	4733.333
64.640	4995.833
64.660	4875.000
64.680	4854.167
64.700	4875.000
64.720	5029.167
64.740	4895.833
64.760	4720.833
64.780	4662.500
64.800	4804.167
64.820	4875.000
64.840	4887.500
64.860	5020.833
64.880	4879.167
64.900	4950.000
64.920	5020.833
64.940	5104.167
64.960	5241.667
64.980	5300.000
65.000	5170.833
65.020	5387.500
65.040	5495.833
65.060	5612.500
65.080	5862.500
65.100	6075.000
65.120	6300.000
65.140	6162.500
65.160	6054.167
65.180	6020.833
65.200	6075.000
65.220	6095.833
65.240	5879.167
65.260	5895.833
65.280	6066.667
65.300	6075.000
65.320	6175.000
65.340	6195.833
65.360	5920.833
65.380	5733.333
65.400	5862.500
65.420	5787.500
65.440	5908.333
65.460	5883.333
65.480	5887.500
65.500	6004.167
65.520	6366.667
65.540	6316.667
65.560	6437.500
65.580	6429.167
65.600	6800.000
65.620	7020.833
65.640	7283.333
65.660	7241.667
65.680	7487.500
65.700	7775.000
65.720	7779.167
65.740	7912.500
65.760	7883.333
65.780	7808.333
65.800	7737.500
65.820	7754.167
65.840	7766.667
65.860	7791.667
65.880	7945.833
65.900	7866.667
65.920	7575.000
65.940	7825.000
65.960	7979.167
65.980	7712.500
66.000	7720.833
66.020	7837.500
66.040	7979.167
66.060	8412.500
66.080	8412.500
66.100	8779.167
66.120	8870.833
66.140	9050.000
66.160	9304.167
66.180	9233.333
66.200	9016.667
66.220	9083.333
66.240	8945.833
66.260	8916.667
66.280	9041.667
66.300	8708.333
66.320	8733.333
66.340	8441.667
66.360	8445.833
66.380	8212.500
66.400	8204.167
66.420	7754.167
66.440	7537.500
66.460	7300.000
66.480	7166.667
66.500	7129.167
66.520	7075.000
66.540	6845.833
66.560	6637.500
66.580	6433.333
66.600	6420.833
66.620	6400.000
66.640	6212.500
66.660	6125.000
66.680	5779.167
66.700	5925.000
66.720	5845.833
66.740	5566.667
66.760	5408.333
66.780	5462.500
66.800	5420.833
66.820	5416.667
66.840	5400.000
66.860	5287.500
66.880	5300.000
66.900	5404.167
66.920	5270.833
66.940	5083.333
66.960	5391.667
66.980	5120.833
67.000	5004.167
67.020	5220.833
67.040	5133.333
67.060	5195.833
67.080	5320.833
67.100	5279.167
67.120	5275.000
67.140	5220.833
67.160	5166.667
67.180	5225.000
67.200	5475.000
67.220	5420.833
67.240	5404.167
67.260	5383.333
67.280	5283.333
67.300	5087.500
67.320	5066.667
67.340	5300.000
67.360	5216.667
67.380	5416.667
67.400	5287.500
67.420	5175.000
67.440	5100.000
67.460	5154.167
67.480	5275.000
67.500	5466.667
67.520	5233.333
67.540	5308.333
67.560	5450.000
67.580	5458.333
67.600	5508.333
67.620	5470.833
67.640	5354.167
67.660	5450.000
67.680	5412.500
67.700	5679.167
67.720	5983.333
67.740	5945.833
67.760	6091.667
67.780	6233.333
67.800	6429.167
67.820	6575.000
67.840	6954.167
67.860	7075.000
67.880	7191.667
67.900	7479.167
67.920	8041.667
67.940	8408.333
67.960	8616.667
67.980	9037.500
68.000	9579.167
68.020	9633.333
68.040	9308.333
68.060	8866.667
68.080	8533.333
68.100	8016.667
68.120	7662.500
68.140	7550.000
68.160	7533.333
68.180	7487.500
68.200	7166.667
68.220	7300.000
68.240	6837.500
68.260	6487.500
68.280	6125.000
68.300	5954.167
68.320	5387.500
68.340	5250.000
68.360	4829.167
68.380	4850.000
68.400	4845.833
68.420	4750.000
68.440	4450.000
68.460	4533.333
68.480	4362.500
68.500	4658.333
68.520	4495.833
68.540	4333.333
68.560	4462.500
68.580	4237.500
68.600	4116.667
68.620	4141.667
68.640	4137.500
68.660	4200.000
68.680	4433.333
68.700	4291.667
68.720	4183.333
68.740	4416.667
68.760	4254.167
68.780	4154.167
68.800	4325.000
68.820	4420.833
68.840	4208.333
68.860	4179.167
68.880	4012.500
68.900	4179.167
68.920	4220.833
68.940	4183.333
68.960	4241.667
68.980	4229.167
69.000	4066.667
69.020	4229.167
69.040	4366.667
69.060	4150.000
69.080	4275.000
69.100	4212.500
69.120	4275.000
69.140	4212.500
69.160	4270.833
69.180	4312.500
69.200	4337.500
69.220	4145.833
69.240	4341.667
69.260	4345.833
69.280	4370.833
69.300	4175.000
69.320	4166.667
69.340	4195.833
69.360	4225.000
69.380	4095.833
69.400	4154.167
69.420	4225.000
69.440	4170.833
69.460	4279.167
69.480	4220.833
69.500	4150.000
69.520	4254.167
69.540	4170.833
69.560	4195.833
69.580	4233.333
69.600	4208.333
69.620	4325.000
69.640	4345.833
69.660	4270.833
69.680	4120.833
69.700	4341.667
69.720	4241.667
69.740	4229.167
69.760	4316.667
69.780	4120.833
69.800	4158.333
69.820	4112.500
69.840	4300.000
69.860	4354.167
69.880	4300.000
69.900	4295.833
69.920	4170.833
69.940	4270.833
69.960	4220.833
69.980	4329.167
70.000	4233.333
70.020	4445.833
70.040	4325.000
70.060	4462.500
70.080	4454.167
70.100	4383.333
70.120	4270.833
70.140	4158.333
70.160	4345.833
70.180	4325.000
70.200	4266.667
70.220	4283.333
70.240	4375.000
70.260	4275.000
70.280	4337.500
70.300	4245.833
70.320	4308.333
70.340	4391.667
70.360	4166.667
70.380	4237.500
70.400	4212.500
70.420	4191.667
70.440	4341.667
70.460	4379.167
70.480	4325.000
70.500	4129.167
70.520	4108.333
70.540	4125.000
70.560	4212.500
70.580	4079.167
70.600	4083.333
70.620	4087.500
70.640	3920.833
70.660	4145.833
70.680	4162.500
70.700	4212.500
70.720	4183.333
70.740	4083.333
70.760	4066.667
70.780	4133.333
70.800	4025.000
70.820	3975.000
70.840	3987.500
70.860	4000.000
70.880	4054.167
70.900	4045.833
70.920	4108.333
70.940	4170.833
70.960	4037.500
70.980	3787.500
71.000	3883.333
71.020	4079.167
71.040	4066.667
71.060	3975.000
71.080	3941.667
71.100	3975.000
71.120	4075.000
71.140	4041.667
71.160	3800.000
71.180	3920.833
71.200	3937.500
71.220	4012.500
71.240	3887.500
71.260	4045.833
71.280	4075.000
71.300	4154.167
71.320	3833.333
71.340	3979.167
71.360	4020.833
71.380	3916.667
71.400	3683.333
71.420	3875.000
71.440	3933.333
71.460	3958.333
71.480	4041.667
71.500	4020.833
71.520	4000.000
71.540	4170.833
71.560	4079.167
71.580	4008.333
71.600	4012.500
71.620	3875.000
71.640	3870.833
71.660	4004.167
71.680	4054.167
71.700	3837.500
71.720	3987.500
71.740	4075.000
71.760	4216.667
71.780	3950.000
71.800	3929.167
71.820	3991.667
71.840	4104.167
71.860	4129.167
71.880	3850.000
71.900	3966.667
71.920	3983.333
71.940	3908.333
71.960	3883.333
71.980	3883.333
72.000	4066.667
72.020	3870.833
72.040	4112.500
72.060	4029.167
72.080	4170.833
72.100	4108.333
72.120	4216.667
72.140	4337.500
72.160	4179.167
72.180	4137.500
72.200	4379.167
72.220	4345.833
72.240	4458.333
72.260	4570.833
72.280	4483.333
72.300	4591.667
72.320	4520.833
72.340	4541.667
72.360	4383.333
72.380	4687.500
72.400	4595.833
72.420	4558.333
72.440	4254.167
72.460	4579.167
72.480	4604.167
72.500	4654.167
72.520	4616.667
72.540	4462.500
72.560	4495.833
72.580	4445.833
72.600	4550.000
72.620	4520.833
72.640	4654.167
72.660	4437.500
72.680	4716.667
72.700	4920.833
72.720	4650.000
72.740	4600.000
72.760	4525.000
72.780	4650.000
72.800	4633.333
72.820	4554.167
72.840	4612.500
72.860	4895.833
72.880	4595.833
72.900	4704.167
72.920	4683.333
72.940	4712.500
72.960	4887.500
72.980	4925.000
73.000	4754.167
73.020	4795.833
73.040	4837.500
73.060	4725.000
73.080	4854.167
73.100	4958.333
73.120	4845.833
73.140	4750.000
73.160	4725.000
73.180	4812.500
73.200	4583.333
73.220	4620.833
73.240	4645.833
73.260	4587.500
73.280	4562.500
73.300	4687.500
73.320	4612.500
73.340	4504.167
73.360	4529.167
73.380	4466.667
73.400	4329.167
73.420	4225.000
73.440	4358.333
73.460	4375.000
73.480	4512.500
73.500	4308.333
73.520	4204.167
73.540	4195.833
73.560	4154.167
73.580	4091.667
73.600	4220.833
73.620	4383.333
73.640	4362.500
73.660	3991.667
73.680	4158.333
73.700	4179.167
73.720	4083.333
73.740	4145.833
73.760	4133.333
73.780	4116.667
73.800	4070.833
73.820	4175.000
73.840	4383.333
73.860	4416.667
73.880	4395.833
73.900	4283.333
73.920	4212.500
73.940	4191.667
73.960	3933.333
73.980	4154.167
74.000	4345.833
74.020	4270.833
74.040	4208.333
74.060	4287.500
74.080	4304.167
74.100	4420.833
74.120	4358.333
74.140	4408.333
74.160	4270.833
74.180	4366.667
74.200	4245.833
74.220	4429.167
74.240	4400.000
74.260	4504.167
74.280	4533.333
74.300	4437.500
74.320	4629.167
74.340	4595.833
74.360	4379.167
74.380	4604.167
74.400	4608.333
74.420	4604.167
74.440	4637.500
74.460	4658.333
74.480	4800.000
74.500	4795.833
74.520	4737.500
74.540	4633.333
74.560	4704.167
74.580	4775.000
74.600	5016.667
74.620	4825.000
74.640	4858.333
74.660	4970.833
74.680	4800.000
74.700	4954.167
74.720	4845.833
74.740	4962.500
74.760	4825.000
74.780	5025.000
74.800	4954.167
74.820	5195.833
74.840	5158.333
74.860	5308.333
74.880	5487.500
74.900	5379.167
74.920	5545.833
74.940	5483.333
74.960	5391.667
74.980	5458.333
75.000	5329.167
75.020	5270.833
75.040	5470.833
75.060	5633.333
75.080	5783.333
75.100	5612.500
75.120	6050.000
75.140	6062.500
75.160	6283.333
75.180	5937.500
75.200	5679.167
75.220	5691.667
75.240	5795.833
75.260	5354.167
75.280	5570.833
75.300	5266.667
75.320	5320.833
75.340	5129.167
75.360	5145.833
75.380	5216.667
75.400	5104.167
75.420	5087.500
75.440	4900.000
75.460	4858.333
75.480	4833.333
75.500	4641.667
75.520	4520.833
75.540	4512.500
75.560	4616.667
75.580	4675.000
75.600	4354.167
75.620	4258.333
75.640	4429.167
75.660	4370.833
75.680	4425.000
75.700	4320.833
75.720	4287.500
75.740	4145.833
75.760	4358.333
75.780	4441.667
75.800	4291.667
75.820	4162.500
75.840	4179.167
75.860	4325.000
75.880	4225.000
75.900	4212.500
75.920	4387.500
75.940	4441.667
75.960	4341.667
75.980	4141.667
76.000	4004.167
76.020	4070.833
76.040	4100.000
76.060	4145.833
76.080	4029.167
76.100	4258.333
76.120	4133.333
76.140	4204.167
76.160	4191.667
76.180	3970.833
76.200	4225.000
76.220	4108.333
76.240	4279.167
76.260	4437.500
76.280	4408.333
76.300	4158.333
76.320	4233.333
76.340	4245.833
76.360	4266.667
76.380	4412.500
76.400	4200.000
76.420	4354.167
76.440	4375.000
76.460	4395.833
76.480	4358.333
76.500	4141.667
76.520	4279.167
76.540	4337.500
76.560	4141.667
76.580	4350.000
76.600	4133.333
76.620	4225.000
76.640	4179.167
76.660	4233.333
76.680	4345.833
76.700	4295.833
76.720	4250.000
76.740	4212.500
76.760	4229.167
76.780	4391.667
76.800	4475.000
76.820	4375.000
76.840	4354.167
76.860	4329.167
76.880	4333.333
76.900	4229.167
76.920	4395.833
76.940	4433.333
76.960	4441.667
76.980	4454.167
77.000	4345.833
77.020	4329.167
77.040	4108.333
77.060	4250.000
77.080	4216.667
77.100	4183.333
77.120	4325.000
77.140	4458.333
77.160	4450.000
77.180	4250.000
77.200	4266.667
77.220	4095.833
77.240	4233.333
77.260	4312.500
77.280	4345.833
77.300	4462.500
77.320	4379.167
77.340	4258.333
77.360	4070.833
77.380	4154.167
77.400	4225.000
77.420	4250.000
77.440	4275.000
77.460	4266.667
77.480	4212.500
77.500	4395.833
77.520	4562.500
77.540	4416.667
77.560	4433.333
77.580	4350.000
77.600	4337.500
77.620	4491.667
77.640	4408.333
77.660	4175.000
77.680	4262.500
77.700	4266.667
77.720	4316.667
77.740	4391.667
77.760	4508.333
77.780	4412.500
77.800	4504.167
77.820	4637.500
77.840	4562.500
77.860	4445.833
77.880	4475.000
77.900	4612.500
77.920	4470.833
77.940	4620.833
77.960	4650.000
77.980	4487.500
78.000	4508.333
78.020	4733.333
78.040	4787.500
78.060	4820.833
78.080	4658.333
78.100	4725.000
78.120	4983.333
78.140	4654.167
78.160	4675.000
78.180	4383.333
78.200	4408.333
78.220	4591.667
78.240	4625.000
78.260	4612.500
78.280	4658.333
78.300	4466.667
78.320	4600.000
78.340	4416.667
78.360	4429.167
78.380	4358.333
78.400	4408.333
78.420	4325.000
78.440	4304.167
78.460	4170.833
78.480	4429.167
78.500	4400.000
78.520	4441.667
78.540	4300.000
78.560	4112.500
78.580	4216.667
78.600	4225.000
78.620	4291.667
78.640	4404.167
78.660	4116.667
78.680	4204.167
78.700	4166.667
78.720	4233.333
78.740	4041.667
78.760	4154.167
78.780	4162.500
78.800	4133.333
78.820	4145.833
78.840	4008.333
78.860	3929.167
78.880	4037.500
78.900	4037.500
78.920	4112.500
78.940	4195.833
78.960	4191.667
78.980	4104.167
79.000	4016.667
79.020	4108.333
79.040	3958.333
79.060	3891.667
79.080	4008.333
79.100	3883.333
79.120	4020.833
79.140	4008.333
79.160	4058.333
79.180	4041.667
79.200	3845.833
79.220	3866.667
79.240	3837.500
79.260	3904.167
79.280	4045.833
79.300	3983.333
79.320	3950.000
79.340	3866.667
79.360	3916.667
79.380	3920.833
79.400	3920.833
79.420	3883.333
79.440	3908.333
79.460	3775.000
79.480	3820.833
79.500	3954.167
79.520	3883.333
79.540	3804.167
79.560	4170.833
79.580	3991.667
79.600	3883.333
79.620	3958.333
79.640	3916.667
79.660	4050.000
79.680	3875.000
79.700	3900.000
79.720	3950.000
79.740	3800.000
79.760	4012.500
79.780	3870.833
79.800	4033.333
79.820	4104.167
79.840	4183.333
79.860	3945.833
79.880	3995.833
79.900	4116.667
79.920	4150.000
79.940	4133.333
79.960	4041.667
79.980	3908.333
80.000	4341.667
80.020	4241.667
80.040	4283.333
80.060	4345.833
80.080	4166.667
80.100	4137.500
80.120	4245.833
80.140	4320.833
80.160	4200.000
80.180	4220.833
80.200	4250.000
80.220	4341.667
80.240	4316.667
80.260	4404.167
80.280	4379.167
80.300	4241.667
80.320	4312.500
80.340	4312.500
80.360	4120.833
80.380	4391.667
80.400	4370.833
80.420	4212.500
80.440	4208.333
80.460	4129.167
80.480	4041.667
80.500	4050.000
80.520	4083.333
80.540	4120.833
80.560	4262.500
80.580	4083.333
80.600	3925.000
80.620	3770.833
80.640	4054.167
80.660	4137.500
80.680	3916.667
80.700	3920.833
80.720	4154.167
80.740	3933.333
80.760	3895.833
80.780	4033.333
80.800	4137.500
80.820	4000.000
80.840	3879.167
80.860	3933.333
80.880	3854.167
80.900	3966.667
80.920	4012.500
80.940	3725.000
80.960	3891.667
80.980	4008.333
81.000	3920.833
81.020	3879.167
81.040	3804.167
81.060	3904.167
81.080	3912.500
81.100	4045.833
81.120	3845.833
81.140	4000.000
81.160	3954.167
81.180	3937.500
81.200	4045.833
81.220	4183.333
81.240	4062.500
81.260	3954.167
81.280	4041.667
81.300	3891.667
81.320	3858.333
81.340	3966.667
81.360	3950.000
81.380	3783.333
81.400	3787.500
81.420	4158.333
81.440	4104.167
81.460	3975.000
81.480	3820.833
81.500	4087.500
81.520	4170.833
81.540	4166.667
81.560	4070.833
81.580	4225.000
81.600	4041.667
81.620	4366.667
81.640	4366.667
81.660	4483.333
81.680	4362.500
81.700	4291.667
81.720	4337.500
81.740	4475.000
81.760	4329.167
81.780	4437.500
81.800	4441.667
81.820	4487.500
81.840	4333.333
81.860	4312.500
81.880	4266.667
81.900	4412.500
81.920	4412.500
81.940	4408.333
81.960	4450.000
81.980	4329.167
82.000	4550.000
82.020	4479.167
82.040	4116.667
82.060	4379.167
82.080	4437.500
82.100	4379.167
82.120	4241.667
82.140	4345.833
82.160	4308.333
82.180	4404.167
82.200	4579.167
82.220	4545.833
82.240	4520.833
82.260	4733.333
82.280	4645.833
82.300	4512.500
82.320	4683.333
82.340	4662.500
82.360	4545.833
82.380	4666.667
82.400	4641.667
82.420	4770.833
82.440	4512.500
82.460	4675.000
82.480	4616.667
82.500	4537.500
82.520	4704.167
82.540	4679.167
82.560	5054.167
82.580	4900.000
82.600	4958.333
82.620	4966.667
82.640	4841.667
82.660	5000.000
82.680	5004.167
82.700	4900.000
82.720	4975.000
82.740	4825.000
82.760	5100.000
82.780	4966.667
82.800	5095.833
82.820	4841.667
82.840	5037.500
82.860	5129.167
82.880	5070.833
82.900	5041.667
82.920	4937.500
82.940	4937.500
82.960	4862.500
82.980	4954.167
83.000	4883.333
83.020	5104.167
83.040	4958.333
83.060	4720.833
83.080	4845.833
83.100	4637.500
83.120	4770.833
83.140	4554.167
83.160	4608.333
83.180	4620.833
83.200	4720.833
83.220	4591.667
83.240	4558.333
83.260	4558.333
83.280	4708.333
83.300	4575.000
83.320	4679.167
83.340	4395.833
83.360	4362.500
83.380	4595.833
83.400	4508.333
83.420	4570.833
83.440	4545.833
83.460	4750.000
83.480	4812.500
83.500	4754.167
83.520	4579.167
83.540	4662.500
83.560	4858.333
83.580	4650.000
83.600	4741.667
83.620	4654.167
83.640	4516.667
83.660	4570.833
83.680	4645.833
83.700	4600.000
83.720	4720.833
83.740	4587.500
83.760	4783.333
83.780	4820.833
83.800	4766.667
83.820	4516.667
83.840	4691.667
83.860	4608.333
83.880	4612.500
83.900	4600.000
83.920	4620.833
83.940	4825.000
83.960	4758.333
83.980	4804.167
84.000	4595.833
84.020	4608.333
84.040	4629.167
84.060	4583.333
84.080	4650.000
84.100	4770.833
84.120	4733.333
84.140	4645.833
84.160	4650.000
84.180	4583.333
84.200	4716.667
84.220	4683.333
84.240	4658.333
84.260	4662.500
84.280	4933.333
84.300	4987.500
84.320	4658.333
84.340	4691.667
84.360	4879.167
84.380	4616.667
84.400	4591.667
84.420	4450.000
84.440	4587.500
84.460	4762.500
84.480	4850.000
84.500	4812.500
84.520	4754.167
84.540	4600.000
84.560	4770.833
84.580	4841.667
84.600	4579.167
84.620	4683.333
84.640	4616.667
84.660	4754.167
84.680	4808.333
84.700	4841.667
84.720	4758.333
84.740	4762.500
84.760	4991.667
84.780	4716.667
84.800	4633.333
84.820	4716.667
84.840	4620.833
84.860	4637.500
84.880	4470.833
84.900	4541.667
84.920	4616.667
84.940	4641.667
84.960	4758.333
84.980	4520.833
85.000	4662.500
85.020	4841.667
85.040	4629.167
85.060	4483.333
85.080	4587.500
85.100	4375.000
85.120	4350.000
85.140	4395.833
85.160	4654.167
85.180	4350.000
85.200	4350.000
85.220	4404.167
85.240	4337.500
85.260	4237.500
85.280	4366.667
85.300	4354.167
85.320	4304.167
85.340	4295.833
85.360	4350.000
85.380	4220.833
85.400	4183.333
85.420	4462.500
85.440	4154.167
85.460	4295.833
85.480	4212.500
85.500	4187.500
85.520	4187.500
85.540	4145.833
85.560	3966.667
85.580	4058.333
85.600	4166.667
85.620	4362.500
85.640	4183.333
85.660	4187.500
85.680	4620.833
85.700	4262.500
85.720	4170.833
85.740	4183.333
85.760	4304.167
85.780	4245.833
85.800	4183.333
85.820	4183.333
85.840	4187.500
85.860	4175.000
85.880	4237.500
85.900	4145.833
85.920	4120.833
85.940	4433.333
85.960	4420.833
85.980	4212.500
86.000	4337.500
86.020	4300.000
86.040	4279.167
86.060	4191.667
86.080	4166.667
86.100	4125.000
86.120	4116.667
86.140	4262.500
86.160	4445.833
86.180	4470.833
86.200	4508.333
86.220	4329.167
86.240	4341.667
86.260	4345.833
86.280	4383.333
86.300	4370.833
86.320	4429.167
86.340	4287.500
86.360	4245.833
86.380	4337.500
86.400	4262.500
86.420	4583.333
86.440	4420.833
86.460	4266.667
86.480	4391.667
86.500	4475.000
86.520	4325.000
86.540	4620.833
86.560	4420.833
86.580	4504.167
86.600	4387.500
86.620	4475.000
86.640	4566.667
86.660	4437.500
86.680	4745.833
86.700	4408.333
86.720	4666.667
86.740	4550.000
86.760	4429.167
86.780	4437.500
86.800	4437.500
86.820	4412.500
86.840	4762.500
86.860	4600.000
86.880	4391.667
86.900	4491.667
86.920	4358.333
86.940	4475.000
86.960	4470.833
86.980	4458.333
87.000	4570.833
87.020	4629.167
87.040	4450.000
87.060	4658.333
87.080	4329.167
87.100	4358.333
87.120	4520.833
87.140	4537.500
87.160	4529.167
87.180	4329.167
87.200	4583.333
87.220	4400.000
87.240	4133.333
87.260	4395.833
87.280	4454.167
87.300	4433.333
87.320	4512.500
87.340	4395.833
87.360	4158.333
87.380	4237.500
87.400	4475.000
87.420	4470.833
87.440	4420.833
87.460	4216.667
87.480	4608.333
87.500	4387.500
87.520	4258.333
87.540	4291.667
87.560	4387.500
87.580	4262.500
87.600	4375.000
87.620	4095.833
87.640	4083.333
87.660	4429.167
87.680	4266.667
87.700	4345.833
87.720	4437.500
87.740	4250.000
87.760	4266.667
87.780	4466.667
87.800	4375.000
87.820	4254.167
87.840	4070.833
87.860	4395.833
87.880	4137.500
87.900	4183.333
87.920	4404.167
87.940	4362.500
87.960	4200.000
87.980	4350.000
88.000	4354.167
88.020	4500.000
88.040	4583.333
88.060	4183.333
88.080	4345.833
88.100	4479.167
88.120	4254.167
88.140	4350.000
88.160	4241.667
88.180	4537.500
88.200	4479.167
88.220	4233.333
88.240	4212.500
88.260	4379.167
88.280	4404.167
88.300	4329.167
88.320	4170.833
88.340	4379.167
88.360	4404.167
88.380	4491.667
88.400	4220.833
88.420	4229.167
88.440	4495.833
88.460	4512.500
88.480	4425.000
88.500	4529.167
88.520	4270.833
88.540	4512.500
88.560	4395.833
88.580	4325.000
88.600	4533.333
88.620	4600.000
88.640	4587.500
88.660	4458.333
88.680	4745.833
88.700	4704.167
88.720	4670.833
88.740	4700.000
88.760	4708.333
88.780	4733.333
88.800	4558.333
88.820	4595.833
88.840	4533.333
88.860	4733.333
88.880	4808.333
88.900	4837.500
88.920	4833.333
88.940	4758.333
88.960	4716.667
88.980	4816.667
89.000	4883.333
89.020	4916.667
89.040	4808.333
89.060	5070.833
89.080	4958.333
89.100	4845.833
89.120	5100.000
89.140	4991.667
89.160	4766.667
89.180	4895.833
89.200	4983.333
89.220	5058.333
89.240	4891.667
89.260	4783.333
89.280	4841.667
89.300	4883.333
89.320	4866.667
89.340	5045.833
89.360	4925.000
89.380	4791.667
89.400	4770.833
89.420	4962.500
89.440	5112.500
89.460	4904.167
89.480	5333.333
89.500	5195.833
89.520	5162.500
89.540	5287.500
89.560	5550.000
89.580	5404.167
89.600	5550.000
89.620	5762.500
89.640	5600.000
89.660	5662.500
89.680	5720.833
89.700	5620.833
89.720	6004.167
89.740	5554.167
89.760	5500.000
89.780	5637.500
89.800	5362.500
89.820	5491.667
89.840	5612.500
89.860	5245.833
89.880	5120.833
89.900	5200.000
89.920	5270.833
89.940	5270.833
89.960	5270.833
89.980	5270.833
90.000	5270.833
