5.000	5875.000
5.020	5750.000
5.040	5612.500
5.060	5495.833
5.080	5412.500
5.100	5658.333
5.120	5720.833
5.140	5533.333
5.160	5466.667
5.180	5504.167
5.200	5670.833
5.220	5679.167
5.240	5629.167
5.260	5391.667
5.280	5454.167
5.300	5550.000
5.320	5537.500
5.340	5462.500
5.360	5487.500
5.380	5712.500
5.400	5741.667
5.420	5383.333
5.440	5370.833
5.460	5670.833
5.480	5687.500
5.500	5637.500
5.520	5604.167
5.540	5654.167
5.560	5487.500
5.580	5345.833
5.600	5483.333
5.620	5508.333
5.640	5587.500
5.660	5408.333
5.680	5404.167
5.700	5487.500
5.720	5108.333
5.740	5016.667
5.760	5254.167
5.780	5325.000
5.800	5475.000
5.820	5500.000
5.840	5441.667
5.860	5691.667
5.880	5612.500
5.900	5454.167
5.920	5441.667
5.940	5404.167
5.960	5400.000
5.980	5391.667
6.000	5433.333
6.020	5195.833
6.040	5141.667
6.060	5400.000
6.080	5387.500
6.100	5325.000
6.120	5304.167
6.140	5350.000
6.160	5412.500
6.180	5458.333
6.200	5433.333
6.220	5462.500
6.240	5641.667
6.260	5608.333
6.280	5495.833
6.300	5379.167
6.320	5462.500
6.340	5541.667
6.360	5620.833
6.380	5500.000
6.400	5295.833
6.420	5320.833
6.440	5387.500
6.460	5450.000
6.480	5279.167
6.500	5220.833
6.520	5220.833
6.540	5187.500
6.560	5237.500
6.580	5429.167
6.600	5325.000
6.620	5337.500
6.640	5491.667
6.660	5429.167
6.680	5312.500
6.700	5387.500
6.720	5500.000
6.740	5345.833
6.760	5354.167
6.780	5520.833
6.800	5583.333
6.820	5620.833
6.840	5516.667
6.860	5554.167
6.880	5479.167
6.900	5375.000
6.920	5312.500
6.940	5341.667
6.960	5345.833
6.980	5262.500
7.000	5416.667
7.020	5220.833
7.040	5195.833
7.060	5354.167
7.080	5470.833
7.100	5512.500
7.120	5270.833
7.140	5283.333
7.160	5495.833
7.180	5295.833
7.200	5216.667
7.220	5320.833
7.240	5504.167
7.260	5316.667
7.280	5345.833
7.300	5479.167
7.320	5458.333
7.340	5366.667
7.360	5575.000
7.380	5675.000
7.400	5383.333
7.420	5204.167
7.440	5258.333
7.460	5362.500
7.480	5479.167
7.500	5520.833
7.520	5287.500
7.540	5104.167
7.560	5200.000
7.580	5300.000
7.600	5258.333
7.620	5429.167
7.640	5508.333
7.660	5495.833
7.680	5516.667
7.700	5583.333
7.720	5483.333
7.740	5525.000
7.760	5462.500
7.780	5529.167
7.800	5508.333
7.820	5483.333
7.840	5391.667
7.860	5358.333
7.880	5383.333
7.900	5329.167
7.920	5512.500
7.940	5466.667
7.960	5295.833
7.980	5370.833
8.000	5216.667
8.020	5266.667
8.040	5258.333
8.060	5254.167
8.080	5220.833
8.100	5362.500
8.120	5512.500
8.140	5400.000
8.160	5495.833
8.180	5575.000
8.200	5387.500
8.220	5279.167
8.240	5437.500
8.260	5358.333
8.280	5391.667
8.300	5525.000
8.320	5500.000
8.340	5487.500
8.360	5666.667
8.380	5466.667
8.400	5379.167
8.420	5320.833
8.440	5279.167
8.460	5354.167
8.480	5358.333
8.500	5445.833
8.520	5554.167
8.540	5491.667
8.560	5320.833
8.580	5225.000
8.600	5408.333
8.620	5379.167
8.640	5358.333
8.660	5354.167
8.680	5412.500
8.700	5429.167
8.720	5491.667
8.740	5395.833
8.760	5279.167
8.780	5279.167
8.800	5379.167
8.820	5495.833
8.840	5491.667
8.860	5362.500
8.880	5416.667
8.900	5395.833
8.920	5412.500
8.940	5325.000
8.960	5375.000
8.980	5387.500
9.000	5570.833
9.020	5645.833
9.040	5337.500
9.060	5470.833
9.080	5566.667
9.100	5441.667
9.120	5520.833
9.140	5708.333
9.160	5779.167
9.180	5504.167
9.200	5429.167
9.220	5500.000
9.240	5483.333
9.260	5495.833
9.280	5504.167
9.300	5616.667
9.320	5679.167
9.340	5645.833
9.360	5608.333
9.380	5620.833
9.400	5583.333
9.420	5645.833
9.440	5654.167
9.460	5554.167
9.480	5408.333
9.500	5300.000
9.520	5275.000
9.540	5366.667
9.560	5525.000
9.580	5637.500
9.600	5745.833
9.620	5645.833
9.640	5650.000
9.660	5687.500
9.680	5770.833
9.700	5812.500
9.720	5666.667
9.740	5491.667
9.760	5375.000
9.780	5537.500
9.800	5666.667
9.820	5479.167
9.840	5683.333
9.860	5704.167
9.880	5833.333
9.900	5800.000
9.920	5754.167
9.940	5683.333
9.960	5687.500
9.980	5708.333
10.000	5733.333
10.020	5729.167
10.040	5662.500
10.060	5812.500
10.080	5854.167
10.100	5754.167
10.120	5679.167
10.140	5712.500
10.160	5812.500
10.180	5770.833
10.200	5616.667
10.220	5741.667
10.240	5941.667
10.260	5954.167
10.280	5925.000
10.300	5766.667
10.320	5816.667
10.340	5937.500
10.360	5945.833
10.380	6016.667
10.400	6025.000
10.420	5800.000
10.440	5654.167
10.460	5720.833
10.480	5962.500
10.500	5958.333
10.520	5783.333
10.540	5825.000
10.560	6091.667
10.580	6045.833
10.600	5979.167
10.620	6029.167
10.640	6091.667
10.660	5941.667
10.680	5870.833
10.700	5870.833
10.720	5970.833
10.740	5983.333
10.760	6104.167
10.780	6029.167
10.800	5950.000
10.820	5945.833
10.840	5904.167
10.860	6050.000
10.880	6162.500
10.900	6041.667
10.920	5962.500
10.940	6129.167
10.960	6095.833
10.980	6195.833
11.000	6062.500
11.020	6000.000
11.040	6000.000
11.060	6129.167
11.080	6166.667
11.100	6250.000
11.120	6320.833
11.140	5983.333
11.160	6045.833
11.180	6291.667
11.200	6179.167
11.220	6216.667
11.240	6279.167
11.260	6162.500
11.280	6250.000
11.300	6250.000
11.320	6308.333
11.340	6458.333
11.360	6341.667
11.380	6358.333
11.400	6379.167
11.420	6516.667
11.440	6362.500
11.460	6391.667
11.480	6487.500
11.500	6354.167
11.520	6316.667
11.540	6154.167
11.560	6133.333
11.580	6166.667
11.600	6316.667
11.620	6520.833
11.640	6391.667
11.660	6262.500
11.680	6262.500
11.700	6433.333
11.720	6458.333
11.740	6558.333
11.760	6537.500
11.780	6525.000
11.800	6258.333
11.820	6283.333
11.840	6320.833
11.860	6525.000
11.880	6491.667
11.900	6470.833
11.920	6350.000
11.940	6337.500
11.960	6337.500
11.980	6466.667
12.000	6612.500
12.020	6387.500
12.040	6287.500
12.060	6241.667
12.080	6416.667
12.100	6479.167
12.120	6662.500
12.140	6787.500
12.160	6591.667
12.180	6491.667
12.200	6658.333
12.220	6683.333
12.240	6741.667
12.260	6716.667
12.280	6829.167
12.300	6716.667
12.320	6741.667
12.340	6591.667
12.360	6454.167
12.380	6570.833
12.400	6529.167
12.420	6741.667
12.440	6733.333
12.460	6633.333
12.480	6716.667
12.500	6870.833
12.520	6725.000
12.540	6541.667
12.560	6666.667
12.580	6558.333
12.600	6354.167
12.620	6320.833
12.640	6458.333
12.660	6637.500
12.680	6579.167
12.700	6575.000
12.720	6691.667
12.740	6712.500
12.760	6458.333
12.780	6562.500
12.800	6691.667
12.820	6650.000
12.840	6733.333
12.860	6741.667
12.880	6687.500
12.900	6758.333
12.920	6758.333
12.940	6783.333
12.960	6687.500
12.980	6825.000
13.000	6775.000
13.020	6662.500
13.040	6808.333
13.060	6787.500
13.080	6883.333
13.100	7004.167
13.120	6725.000
13.140	6962.500
13.160	7004.167
13.180	6920.833
13.200	6941.667
13.220	6975.000
13.240	6816.667
13.260	6600.000
13.280	6695.833
13.300	6775.000
13.320	6800.000
13.340	6962.500
13.360	7100.000
13.380	6891.667
13.400	6875.000
13.420	6933.333
13.440	6837.500
13.460	7008.333
13.480	6987.500
13.500	7050.000
13.520	6945.833
13.540	6825.000
13.560	6941.667
13.580	6962.500
13.600	6775.000
13.620	6795.833
13.640	6845.833
13.660	6925.000
13.680	7012.500
13.700	6950.000
13.720	6950.000
13.740	7075.000
13.760	7183.333
13.780	7175.000
13.800	7070.833
13.820	6937.500
13.840	7016.667
13.860	6862.500
13.880	6991.667
13.900	7041.667
13.920	7058.333
13.940	7016.667
13.960	6925.000
13.980	6966.667
14.000	6858.333
14.020	7054.167
14.040	7154.167
14.060	7050.000
14.080	7004.167
14.100	7162.500
14.120	7108.333
14.140	6979.167
14.160	7045.833
14.180	7195.833
14.200	7229.167
14.220	7087.500
14.240	7054.167
14.260	7020.833
14.280	6995.833
14.300	7104.167
14.320	7333.333
14.340	7208.333
14.360	7216.667
14.380	7183.333
14.400	7066.667
14.420	7070.833
14.440	7166.667
14.460	7095.833
14.480	7116.667
14.500	7170.833
14.520	7116.667
14.540	7245.833
14.560	7187.500
14.580	7108.333
14.600	7300.000
14.620	7045.833
14.640	7083.333
14.660	7108.333
14.680	7125.000
14.700	7270.833
14.720	7304.167
14.740	7316.667
14.760	7058.333
14.780	7229.167
14.800	7270.833
14.820	7029.167
14.840	6987.500
14.860	7100.000
14.880	7154.167
14.900	7112.500
14.920	6950.000
14.940	7112.500
14.960	7229.167
14.980	7229.167
15.000	7312.500
15.020	7191.667
15.040	7150.000
15.060	7295.833
15.080	7375.000
15.100	7433.333
15.120	7350.000
15.140	7450.000
15.160	7420.833
15.180	7283.333
15.200	7216.667
15.220	7362.500
15.240	7437.500
15.260	7291.667
15.280	7320.833
15.300	7250.000
15.320	7316.667
15.340	7362.500
15.360	7262.500
15.380	7462.500
15.400	7454.167
15.420	7437.500
15.440	7229.167
15.460	7191.667
15.480	7300.000
15.500	7287.500
15.520	7412.500
15.540	7458.333
15.560	7533.333
15.580	7375.000
15.600	7512.500
15.620	7454.167
15.640	7104.167
15.660	7225.000
15.680	7387.500
15.700	7520.833
15.720	7462.500
15.740	7445.833
15.760	7375.000
15.780	7350.000
15.800	7362.500
15.820	7512.500
15.840	7645.833
15.860	7575.000
15.880	7587.500
15.900	7766.667
15.920	7679.167
15.940	7637.500
15.960	7658.333
15.980	7495.833
16.000	7641.667
16.020	7591.667
16.040	7287.500
16.060	7320.833
16.080	7337.500
16.100	7450.000
16.120	7633.333
16.140	7516.667
16.160	7358.333
16.180	7350.000
16.200	7437.500
16.220	7591.667
16.240	7658.333
16.260	7604.167
16.280	7695.833
16.300	7820.833
16.320	7508.333
16.340	7541.667
16.360	7508.333
16.380	7529.167
16.400	7520.833
16.420	7595.833
16.440	7604.167
16.460	7512.500
16.480	7608.333
16.500	7516.667
16.520	7595.833
16.540	7575.000
16.560	7508.333
16.580	7487.500
16.600	7425.000
16.620	7429.167
16.640	7554.167
16.660	7595.833
16.680	7441.667
16.700	7566.667
16.720	7837.500
16.740	7866.667
16.760	7650.000
16.780	7541.667
16.800	7779.167
16.820	7616.667
16.840	7579.167
16.860	7587.500
16.880	7504.167
16.900	7600.000
16.920	7612.500
16.940	7441.667
16.960	7320.833
16.980	7512.500
17.000	7600.000
17.020	7700.000
17.040	7812.500
17.060	7725.000
17.080	7662.500
17.100	7620.833
17.120	7804.167
17.140	7762.500
17.160	7775.000
17.180	7904.167
17.200	7800.000
17.220	7758.333
17.240	7762.500
17.260	7662.500
17.280	7604.167
17.300	7637.500
17.320	7904.167
17.340	7766.667
17.360	7833.333
17.380	7791.667
17.400	7925.000
17.420	8062.500
17.440	8108.333
17.460	7691.667
17.480	7566.667
17.500	7791.667
17.520	8054.167
17.540	8025.000
17.560	7700.000
17.580	7945.833
17.600	8004.167
17.620	7858.333
17.640	7800.000
17.660	7762.500
17.680	7937.500
17.700	7862.500
17.720	7983.333
17.740	7845.833
17.760	7783.333
17.780	7695.833
17.800	7616.667
17.820	7750.000
17.840	7712.500
17.860	7879.167
17.880	7879.167
17.900	7908.333
17.920	7912.500
17.940	7787.500
17.960	7950.000
17.980	7929.167
18.000	7679.167
18.020	7887.500
18.040	7962.500
18.060	8237.500
18.080	8387.500
18.100	8204.167
18.120	8404.167
18.140	8504.167
18.160	8245.833
18.180	8233.333
18.200	8087.500
18.220	7941.667
18.240	7962.500
18.260	8062.500
18.280	8062.500
18.300	8016.667
18.320	8120.833
18.340	8041.667
18.360	8050.000
18.380	8025.000
18.400	7975.000
18.420	7958.333
18.440	7916.667
18.460	7962.500
18.480	8083.333
18.500	7875.000
18.520	8066.667
18.540	8216.667
18.560	8029.167
18.580	8112.500
18.600	8012.500
18.620	8050.000
18.640	7879.167
18.660	7891.667
18.680	8137.500
18.700	8308.333
18.720	8112.500
18.740	7908.333
18.760	8029.167
18.780	8087.500
18.800	8129.167
18.820	8266.667
18.840	8041.667
18.860	7916.667
18.880	8091.667
18.900	8275.000
18.920	8020.833
18.940	7995.833
18.960	8266.667
18.980	8287.500
19.000	8137.500
19.020	7950.000
19.040	8029.167
19.060	8300.000
19.080	8254.167
19.100	8125.000
19.120	8204.167
19.140	8316.667
19.160	8195.833
19.180	8058.333
19.200	8262.500
19.220	8070.833
19.240	8054.167
19.260	8312.500
19.280	8375.000
19.300	8229.167
19.320	8087.500
19.340	8208.333
19.360	8262.500
19.380	8316.667
19.400	8145.833
19.420	8166.667
19.440	8175.000
19.460	8316.667
19.480	8325.000
19.500	8150.000
19.520	8245.833
19.540	8220.833
19.560	8012.500
19.580	8083.333
19.600	8004.167
19.620	8054.167
19.640	8158.333
19.660	8341.667
19.680	8462.500
19.700	8387.500
19.720	8229.167
19.740	8137.500
19.760	8112.500
19.780	8108.333
19.800	8191.667
19.820	8529.167
19.840	8295.833
19.860	8300.000
19.880	8366.667
19.900	8300.000
19.920	8237.500
19.940	8345.833
19.960	8433.333
19.980	8437.500
20.000	8300.000
20.020	8295.833
20.040	8345.833
20.060	8233.333
20.080	8200.000
20.100	8291.667
20.120	8175.000
20.140	8420.833
20.160	8483.333
20.180	8466.667
20.200	8433.333
20.220	8212.500
20.240	8162.500
20.260	8225.000
20.280	8358.333
20.300	8491.667
20.320	8533.333
20.340	8520.833
20.360	8533.333
20.380	8516.667
20.400	8483.333
20.420	8462.500
20.440	8262.500
20.460	8466.667
20.480	8520.833
20.500	8608.333
20.520	8445.833
20.540	8416.667
20.560	8545.833
20.580	8300.000
20.600	8162.500
20.620	8216.667
20.640	8308.333
20.660	8358.333
20.680	8366.667
20.700	8408.333
20.720	8437.500
20.740	8445.833
20.760	8504.167
20.780	8254.167
20.800	8141.667
20.820	8266.667
20.840	8312.500
20.860	8304.167
20.880	8179.167
20.900	8304.167
20.920	8379.167
20.940	8379.167
20.960	8450.000
20.980	8541.667
21.000	8654.167
21.020	8562.500
21.040	8266.667
21.060	8187.500
21.080	8279.167
21.100	8308.333
21.120	8166.667
21.140	8208.333
21.160	8391.667
21.180	8470.833
21.200	8608.333
21.220	8504.167
21.240	8391.667
21.260	8375.000
21.280	8566.667
21.300	8600.000
21.320	8395.833
21.340	8500.000
21.360	8258.333
21.380	8450.000
21.400	8504.167
21.420	8583.333
21.440	8516.667
21.460	8229.167
21.480	8487.500
21.500	8633.333
21.520	8470.833
21.540	8500.000
21.560	8595.833
21.580	8766.667
21.600	8750.000
21.620	8475.000
21.640	8291.667
21.660	8395.833
21.680	8554.167
21.700	8587.500
21.720	8754.167
21.740	8541.667
21.760	8608.333
21.780	8795.833
21.800	8741.667
21.820	8545.833
21.840	8791.667
21.860	8783.333
21.880	8420.833
21.900	8495.833
21.920	8616.667
21.940	8529.167
21.960	8470.833
21.980	8516.667
22.000	8558.333
22.020	8487.500
22.040	8287.500
22.060	8387.500
22.080	8512.500
22.100	8741.667
22.120	8800.000
22.140	8458.333
22.160	8454.167
22.180	8508.333
22.200	8437.500
22.220	8362.500
22.240	8508.333
22.260	8670.833
22.280	8487.500
22.300	8537.500
22.320	8658.333
22.340	8537.500
22.360	8333.333
22.380	8354.167
22.400	8391.667
22.420	8487.500
22.440	8504.167
22.460	8458.333
22.480	8633.333
22.500	8754.167
22.520	8729.167
22.540	8666.667
22.560	8612.500
22.580	8420.833
22.600	8533.333
22.620	8791.667
22.640	8879.167
22.660	8770.833
22.680	8670.833
22.700	8837.500
22.720	8733.333
22.740	8641.667
22.760	8629.167
22.780	8762.500
22.800	8537.500
22.820	8437.500
22.840	8654.167
22.860	8729.167
22.880	8770.833
22.900	8745.833
22.920	8470.833
22.940	8645.833
22.960	8962.500
22.980	8745.833
23.000	8712.500
23.020	8633.333
23.040	8583.333
23.060	8783.333
23.080	8758.333
23.100	8675.000
23.120	8800.000
23.140	8920.833
23.160	8787.500
23.180	8766.667
23.200	8770.833
23.220	8612.500
23.240	8800.000
23.260	8966.667
23.280	8854.167
23.300	8825.000
23.320	8725.000
23.340	8766.667
23.360	8708.333
23.380	8695.833
23.400	8729.167
23.420	8870.833
23.440	8916.667
23.460	8808.333
23.480	8862.500
23.500	8883.333
23.520	8595.833
23.540	8508.333
23.560	8637.500
23.580	8779.167
23.600	8933.333
23.620	9041.667
23.640	9070.833
23.660	9050.000
23.680	9108.333
23.700	9229.167
23.720	9100.000
23.740	9079.167
23.760	9112.500
23.780	9083.333
23.800	9158.333
23.820	9466.667
23.840	9429.167
23.860	9254.167
23.880	9537.500
23.900	9720.833
23.920	10075.000
23.940	10529.167
23.960	11037.500
23.980	11583.333
24.000	12362.500
24.020	13016.667
24.040	13745.833
24.060	14158.333
24.080	14141.667
24.100	13708.333
24.120	13183.333
24.140	12516.667
24.160	11962.500
24.180	11437.500
24.200	10741.667
24.220	10004.167
24.240	9804.167
24.260	9658.333
24.280	9600.000
24.300	9500.000
24.320	9250.000
24.340	9191.667
24.360	9195.833
24.380	9245.833
24.400	9166.667
24.420	8950.000
24.440	9108.333
24.460	9108.333
24.480	9045.833
24.500	9025.000
24.520	8933.333
24.540	8929.167
24.560	8787.500
24.580	8712.500
24.600	8858.333
24.620	8945.833
24.640	8908.333
24.660	9087.500
24.680	9033.333
24.700	8837.500
24.720	8929.167
24.740	8966.667
24.760	9175.000
24.780	9362.500
24.800	9300.000
24.820	9075.000
24.840	9029.167
24.860	8883.333
24.880	8779.167
24.900	8933.333
24.920	9108.333
24.940	9037.500
24.960	9095.833
24.980	8870.833
25.000	8645.833
25.020	8704.167
25.040	8741.667
25.060	8858.333
25.080	9058.333
25.100	8870.833
25.120	8820.833
25.140	8962.500
25.160	8862.500
25.180	8895.833
25.200	8833.333
25.220	8829.167
25.240	8966.667
25.260	8779.167
25.280	8766.667
25.300	8995.833
25.320	8908.333
25.340	8850.000
25.360	8804.167
25.380	8900.000
25.400	8941.667
25.420	8904.167
25.440	8945.833
25.460	8879.167
25.480	8966.667
25.500	8958.333
25.520	8941.667
25.540	9070.833
25.560	9258.333
25.580	9212.500
25.600	9108.333
25.620	9070.833
25.640	9012.500
25.660	8950.000
25.680	9058.333
25.700	9037.500
25.720	8870.833
25.740	8962.500
25.760	9008.333
25.780	8945.833
25.800	8791.667
25.820	8883.333
25.840	9091.667
25.860	9125.000
25.880	8975.000
25.900	8887.500
25.920	8987.500
25.940	9125.000
25.960	9025.000
25.980	8991.667
26.000	9000.000
26.020	9008.333
26.040	8995.833
26.060	9100.000
26.080	8966.667
26.100	8870.833
26.120	9062.500
26.140	9062.500
26.160	9045.833
26.180	9066.667
26.200	9125.000
26.220	9345.833
26.240	9675.000
26.260	9320.833
26.280	9029.167
26.300	9066.667
26.320	8958.333
26.340	9095.833
26.360	9245.833
26.380	9125.000
26.400	9108.333
26.420	9083.333
26.440	9283.333
26.460	9475.000
26.480	9429.167
26.500	9379.167
26.520	9204.167
26.540	9150.000
26.560	9179.167
26.580	9266.667
26.600	9262.500
26.620	9220.833
26.640	9070.833
26.660	8883.333
26.680	8983.333
26.700	8995.833
26.720	8850.000
26.740	8858.333
26.760	8920.833
26.780	9016.667
26.800	9016.667
26.820	9087.500
26.840	9208.333
26.860	9154.167
26.880	9270.833
26.900	9108.333
26.920	8829.167
26.940	8816.667
26.960	8962.500
26.980	9137.500
27.000	9158.333
27.020	9137.500
27.040	9212.500
27.060	9054.167
27.080	9145.833
27.100	9108.333
27.120	8816.667
27.140	8879.167
27.160	8912.500
27.180	8966.667
27.200	8879.167
27.220	8850.000
27.240	8958.333
27.260	8995.833
27.280	9125.000
27.300	9216.667
27.320	9058.333
27.340	8866.667
27.360	8925.000
27.380	9037.500
27.400	9079.167
27.420	9079.167
27.440	9041.667
27.460	9008.333
27.480	9058.333
27.500	9075.000
27.520	8987.500
27.540	9104.167
27.560	9154.167
27.580	9054.167
27.600	9029.167
27.620	9058.333
27.640	9000.000
27.660	8866.667
27.680	8900.000
27.700	8983.333
27.720	9029.167
27.740	9125.000
27.760	9116.667
27.780	9075.000
27.800	9125.000
27.820	9175.000
27.840	9025.000
27.860	9112.500
27.880	9450.000
27.900	9362.500
27.920	9375.000
27.940	9208.333
27.960	9145.833
27.980	9112.500
28.000	9054.167
28.020	9137.500
28.040	9187.500
28.060	9216.667
28.080	9145.833
28.100	9145.833
28.120	9216.667
28.140	9170.833
28.160	9004.167
28.180	9004.167
28.200	9091.667
28.220	9258.333
28.240	9312.500
28.260	9183.333
28.280	9316.667
28.300	9304.167
28.320	9162.500
28.340	9000.000
28.360	8883.333
28.380	8995.833
28.400	9016.667
28.420	8983.333
28.440	9104.167
28.460	9104.167
28.480	9175.000
28.500	9154.167
28.520	9016.667
28.540	9050.000
28.560	9070.833
28.580	9087.500
28.600	9079.167
28.620	9116.667
28.640	8954.167
28.660	8812.500
28.680	8987.500
28.700	9225.000
28.720	9316.667
28.740	8991.667
28.760	8883.333
28.780	9108.333
28.800	9237.500
28.820	9133.333
28.840	8970.833
28.860	8958.333
28.880	9016.667
28.900	9104.167
28.920	9079.167
28.940	8908.333
28.960	8920.833
28.980	9045.833
29.000	9154.167
29.020	9266.667
29.040	9141.667
29.060	9125.000
29.080	9375.000
29.100	9283.333
29.120	9116.667
29.140	9062.500
29.160	9104.167
29.180	9120.833
29.200	9187.500
29.220	9237.500
29.240	9037.500
29.260	9087.500
29.280	9204.167
29.300	9258.333
29.320	9075.000
29.340	9020.833
29.360	9029.167
29.380	9033.333
29.400	9062.500
29.420	8995.833
29.440	9004.167
29.460	9129.167
29.480	9291.667
29.500	9162.500
29.520	8966.667
29.540	8883.333
29.560	9170.833
29.580	9454.167
29.600	9470.833
29.620	9312.500
29.640	9283.333
29.660	9404.167
29.680	9454.167
29.700	9587.500
29.720	9770.833
29.740	9720.833
29.760	9725.000
29.780	10166.667
29.800	10387.500
29.820	10645.833
29.840	10941.667
29.860	11008.333
29.880	10670.833
29.900	10216.667
29.920	10187.500
29.940	10025.000
29.960	9745.833
29.980	9670.833
30.000	9525.000
30.020	9387.500
30.040	9345.833
30.060	9270.833
30.080	9229.167
30.100	9220.833
30.120	9116.667
30.140	9175.000
30.160	9141.667
30.180	8879.167
30.200	9025.000
30.220	9195.833
30.240	9341.667
30.260	9279.167
30.280	9008.333
30.300	9008.333
30.320	9154.167
30.340	9112.500
30.360	9158.333
30.380	9266.667
30.400	9041.667
30.420	9112.500
30.440	9333.333
30.460	9154.167
30.480	9208.333
30.500	9245.833
30.520	9050.000
30.540	9216.667
30.560	9187.500
30.580	9108.333
30.600	9258.333
30.620	9191.667
30.640	9120.833
30.660	9033.333
30.680	9091.667
30.700	9237.500
30.720	9129.167
30.740	9062.500
30.760	9112.500
30.780	9233.333
30.800	9191.667
30.820	9129.167
30.840	9125.000
30.860	9016.667
30.880	8983.333
30.900	9262.500
30.920	9358.333
30.940	9195.833
30.960	9187.500
30.980	9200.000
31.000	9091.667
31.020	9125.000
31.040	9333.333
31.060	9350.000
31.080	9333.333
31.100	9216.667
31.120	9204.167
31.140	9329.167
31.160	9445.833
31.180	9400.000
31.200	9137.500
31.220	9258.333
31.240	9600.000
31.260	9508.333
31.280	9212.500
31.300	9208.333
31.320	9325.000
31.340	9250.000
31.360	9195.833
31.380	9254.167
31.400	9395.833
31.420	9429.167
31.440	9458.333
31.460	9504.167
31.480	9612.500
31.500	9666.667
31.520	9650.000
31.540	10000.000
31.560	10437.500
31.580	11079.167
31.600	12229.167
31.620	13879.167
31.640	16725.000
31.660	21166.667
31.680	24283.333
31.700	22716.667
31.720	18829.167
31.740	17279.167
31.760	17429.167
31.780	15629.167
31.800	12562.500
31.820	10645.833
31.840	9970.833
31.860	9750.000
31.880	9558.333
31.900	9537.500
31.920	9412.500
31.940	9375.000
31.960	9458.333
31.980	9516.667
32.000	9583.333
32.020	9691.667
32.040	9675.000
32.060	9425.000
32.080	9383.333
32.100	9412.500
32.120	9250.000
32.140	9245.833
32.160	9441.667
32.180	9458.333
32.200	9262.500
32.220	9383.333
32.240	9525.000
32.260	9470.833
32.280	9433.333
32.300	9416.667
32.320	9441.667
32.340	9525.000
32.360	9591.667
32.380	9604.167
32.400	9595.833
32.420	9612.500
32.440	9425.000
32.460	9320.833
32.480	9508.333
32.500	9570.833
32.520	9508.333
32.540	9583.333
32.560	9633.333
32.580	9516.667
32.600	9520.833
32.620	9554.167
32.640	9679.167
32.660	9854.167
32.680	9837.500
32.700	9804.167
32.720	9912.500
32.740	9875.000
32.760	10116.667
32.780	10325.000
32.800	10283.333
32.820	10537.500
32.840	10933.333
32.860	11366.667
32.880	11845.833
32.900	12495.833
32.920	13087.500
32.940	13791.667
32.960	15108.333
32.980	16950.000
33.000	18741.667
33.020	20833.333
33.040	23233.333
33.060	25170.833
33.080	25933.333
33.100	25137.500
33.120	23758.333
33.140	22387.500
33.160	21083.333
33.180	19295.833
33.200	17187.500
33.220	15562.500
33.240	14370.833
33.260	13533.333
33.280	12858.333
33.300	11925.000
33.320	11258.333
33.340	11029.167
33.360	10770.833
33.380	10433.333
33.400	10354.167
33.420	10533.333
33.440	10200.000
33.460	9691.667
33.480	9712.500
33.500	9658.333
33.520	9558.333
33.540	9500.000
33.560	9479.167
33.580	9566.667
33.600	9654.167
33.620	9691.667
33.640	9595.833
33.660	9275.000
33.680	9266.667
33.700	9362.500
33.720	9333.333
33.740	9558.333
33.760	9554.167
33.780	9412.500
33.800	9320.833
33.820	9370.833
33.840	9462.500
33.860	9412.500
33.880	9229.167
33.900	9195.833
33.920	9345.833
33.940	9300.000
33.960	9212.500
33.980	9362.500
34.000	9391.667
34.020	9266.667
34.040	9187.500
34.060	9179.167
34.080	9304.167
34.100	9554.167
34.120	9554.167
34.140	9508.333
34.160	9545.833
34.180	9358.333
34.200	9287.500
34.220	9675.000
34.240	9870.833
34.260	9995.833
34.280	10079.167
34.300	10095.833
34.320	10208.333
34.340	10387.500
34.360	10304.167
34.380	10070.833
34.400	9904.167
34.420	9791.667
34.440	9975.000
34.460	9712.500
34.480	9429.167
34.500	9525.000
34.520	9566.667
34.540	9475.000
34.560	9591.667
34.580	9691.667
34.600	9608.333
34.620	9587.500
34.640	9516.667
34.660	9466.667
34.680	9462.500
34.700	9604.167
34.720	9562.500
34.740	9437.500
34.760	9400.000
34.780	9416.667
34.800	9400.000
34.820	9354.167
34.840	9420.833
34.860	9675.000
34.880	9779.167
34.900	9766.667
34.920	9729.167
34.940	9554.167
34.960	9741.667
34.980	10054.167
35.000	10279.167
35.020	10233.333
35.040	10300.000
35.060	10783.333
35.080	11325.000
35.100	11866.667
35.120	12741.667
35.140	13491.667
35.160	13754.167
35.180	13662.500
35.200	13666.667
35.220	13445.833
35.240	13216.667
35.260	12929.167
35.280	12725.000
35.300	12566.667
35.320	12454.167
35.340	12491.667
35.360	12575.000
35.380	12741.667
35.400	13150.000
35.420	13783.333
35.440	14508.333
35.460	15737.500
35.480	17370.833
35.500	19079.167
35.520	20875.000
35.540	21879.167
35.560	22029.167
35.580	21425.000
35.600	20395.833
35.620	19475.000
35.640	18512.500
35.660	17479.167
35.680	16170.833
35.700	14941.667
35.720	13804.167
35.740	13050.000
35.760	12404.167
35.780	11762.500
35.800	11150.000
35.820	10862.500
35.840	10766.667
35.860	10583.333
35.880	10204.167
35.900	10062.500
35.920	10183.333
35.940	10266.667
35.960	10166.667
35.980	10083.333
36.000	9862.500
36.020	9716.667
36.040	9770.833
36.060	9975.000
36.080	10295.833
36.100	10808.333
36.120	11454.167
36.140	12045.833
36.160	12412.500
36.180	12425.000
36.200	11995.833
36.220	11412.500
36.240	11229.167
36.260	11187.500
36.280	10808.333
36.300	10295.833
36.320	9966.667
36.340	9775.000
36.360	9533.333
36.380	9416.667
36.400	9433.333
36.420	9591.667
36.440	9745.833
36.460	9562.500
36.480	9287.500
36.500	9275.000
36.520	9312.500
36.540	9295.833
36.560	9445.833
36.580	9500.000
36.600	9500.000
36.620	9341.667
36.640	9329.167
36.660	9250.000
36.680	9304.167
36.700	9441.667
36.720	9358.333
36.740	9312.500
36.760	9500.000
36.780	9541.667
36.800	9625.000
36.820	9729.167
36.840	9387.500
36.860	9362.500
36.880	9566.667
36.900	9304.167
36.920	9304.167
36.940	9437.500
36.960	9512.500
36.980	9345.833
37.000	9237.500
37.020	9066.667
37.040	8991.667
37.060	9304.167
37.080	9375.000
37.100	9170.833
37.120	9254.167
37.140	9237.500
37.160	9291.667
37.180	9245.833
37.200	9187.500
37.220	9408.333
37.240	9408.333
37.260	9320.833
37.280	9337.500
37.300	9504.167
37.320	9450.000
37.340	9275.000
37.360	9420.833
37.380	9383.333
37.400	9108.333
37.420	9158.333
37.440	9308.333
37.460	9291.667
37.480	9179.167
37.500	9250.000
37.520	9320.833
37.540	9250.000
37.560	9183.333
37.580	9070.833
37.600	9091.667
37.620	9300.000
37.640	9216.667
37.660	9145.833
37.680	9470.833
37.700	9416.667
37.720	9270.833
37.740	9283.333
37.760	9329.167
37.780	9262.500
37.800	9220.833
37.820	9466.667
37.840	9487.500
37.860	9287.500
37.880	9383.333
37.900	9470.833
37.920	9533.333
37.940	9437.500
37.960	9179.167
37.980	9133.333
38.000	9150.000
38.020	9091.667
38.040	9429.167
38.060	9550.000
38.080	9320.833
38.100	9191.667
38.120	9212.500
38.140	9425.000
38.160	9362.500
38.180	9412.500
38.200	9529.167
38.220	9354.167
38.240	9208.333
38.260	9283.333
38.280	9258.333
38.300	9233.333
38.320	9212.500
38.340	9291.667
38.360	9308.333
38.380	9237.500
38.400	9154.167
38.420	9237.500
38.440	9404.167
38.460	9541.667
38.480	9466.667
38.500	9250.000
38.520	9116.667
38.540	9245.833
38.560	9341.667
38.580	9329.167
38.600	9166.667
38.620	9045.833
38.640	9050.000
38.660	9083.333
38.680	9220.833
38.700	9529.167
38.720	9566.667
38.740	9395.833
38.760	9450.000
38.780	9279.167
38.800	9258.333
38.820	9420.833
38.840	9395.833
38.860	9529.167
38.880	9337.500
38.900	9262.500
38.920	9375.000
38.940	9425.000
38.960	9470.833
38.980	9400.000
39.000	9250.000
39.020	9441.667
39.040	9400.000
39.060	9320.833
39.080	9470.833
39.100	9462.500
39.120	9366.667
39.140	9654.167
39.160	9604.167
39.180	9425.000
39.200	9587.500
39.220	9716.667
39.240	9620.833
39.260	9516.667
39.280	9562.500
39.300	9600.000
39.320	9462.500
39.340	9329.167
39.360	9191.667
39.380	8987.500
39.400	9191.667
39.420	9170.833
39.440	9037.500
39.460	9212.500
39.480	9312.500
39.500	9295.833
39.520	9216.667
39.540	9233.333
39.560	9237.500
39.580	9100.000
39.600	9025.000
39.620	9250.000
39.640	9304.167
39.660	9237.500
39.680	9045.833
39.700	9150.000
39.720	9441.667
39.740	9358.333
39.760	9212.500
39.780	9279.167
39.800	9475.000
39.820	9320.833
39.840	9304.167
39.860	9620.833
39.880	9504.167
39.900	9166.667
39.920	9258.333
39.940	9254.167
39.960	9258.333
39.980	9308.333
40.000	9312.500
40.020	9195.833
40.040	9375.000
40.060	9408.333
40.080	9329.167
40.100	9204.167
40.120	9312.500
40.140	9337.500
40.160	9358.333
40.180	9337.500
40.200	9212.500
40.220	9175.000
40.240	9270.833
40.260	9379.167
40.280	9637.500
40.300	9550.000
40.320	9495.833
40.340	9408.333
40.360	9366.667
40.380	9400.000
40.400	9270.833
40.420	9358.333
40.440	9575.000
40.460	9616.667
40.480	9662.500
40.500	9508.333
40.520	9433.333
40.540	9583.333
40.560	9958.333
40.580	10087.500
40.600	10029.167
40.620	10258.333
40.640	10262.500
40.660	10466.667
40.680	10691.667
40.700	10891.667
40.720	11483.333
40.740	12083.333
40.760	12179.167
40.780	12391.667
40.800	12616.667
40.820	12416.667
40.840	12229.167
40.860	12087.500
40.880	11712.500
40.900	11304.167
40.920	10916.667
40.940	10729.167
40.960	10566.667
40.980	10550.000
41.000	10400.000
41.020	10145.833
41.040	10104.167
41.060	9904.167
41.080	9841.667
41.100	9875.000
41.120	9645.833
41.140	9562.500
41.160	9470.833
41.180	9437.500
41.200	9383.333
41.220	9204.167
41.240	9262.500
41.260	9383.333
41.280	9495.833
41.300	9525.000
41.320	9387.500
41.340	9416.667
41.360	9512.500
41.380	9470.833
41.400	9529.167
41.420	9512.500
41.440	9383.333
41.460	9329.167
41.480	9233.333
41.500	9216.667
41.520	9275.000
41.540	9466.667
41.560	9104.167
41.580	8887.500
41.600	9337.500
41.620	9316.667
41.640	9266.667
41.660	9270.833
41.680	9183.333
41.700	9170.833
41.720	9187.500
41.740	9225.000
41.760	9329.167
41.780	9191.667
41.800	9120.833
41.820	9337.500
41.840	9195.833
41.860	9241.667
41.880	9304.167
41.900	9420.833
41.920	9445.833
41.940	9304.167
41.960	9116.667
41.980	9045.833
42.000	9212.500
42.020	9108.333
42.040	9108.333
42.060	9100.000
42.080	9079.167
42.100	9125.000
42.120	9083.333
42.140	9295.833
42.160	9170.833
42.180	9029.167
42.200	9183.333
42.220	9137.500
42.240	9200.000
42.260	9241.667
42.280	9345.833
42.300	9579.167
42.320	9354.167
42.340	9258.333
42.360	9170.833
42.380	9341.667
42.400	9270.833
42.420	9212.500
42.440	9308.333
42.460	9229.167
42.480	9325.000
42.500	9220.833
42.520	9279.167
42.540	9416.667
42.560	9237.500
42.580	9125.000
42.600	9237.500
42.620	9362.500
42.640	9358.333
42.660	9250.000
42.680	9404.167
42.700	9558.333
42.720	9433.333
42.740	9554.167
42.760	9533.333
42.780	9612.500
42.800	9704.167
42.820	9716.667
42.840	9666.667
42.860	9720.833
42.880	9554.167
42.900	9429.167
42.920	9545.833
42.940	9687.500
42.960	9529.167
42.980	9366.667
43.000	9412.500
43.020	9375.000
43.040	9233.333
43.060	9120.833
43.080	9133.333
43.100	9270.833
43.120	9270.833
43.140	9412.500
43.160	9316.667
43.180	9112.500
43.200	9104.167
43.220	9241.667
43.240	9241.667
43.260	9237.500
43.280	9487.500
43.300	9541.667
43.320	9412.500
43.340	9337.500
43.360	9316.667
43.380	9312.500
43.400	9408.333
43.420	9304.167
43.440	9375.000
43.460	9445.833
43.480	9454.167
43.500	9487.500
43.520	9433.333
43.540	9470.833
43.560	9541.667
43.580	9537.500
43.600	9512.500
43.620	9333.333
43.640	9245.833
43.660	9366.667
43.680	9312.500
43.700	9145.833
43.720	9025.000
43.740	9183.333
43.760	9245.833
43.780	9283.333
43.800	9254.167
43.820	9262.500
43.840	9362.500
43.860	9254.167
43.880	9125.000
43.900	9108.333
43.920	9175.000
43.940	9258.333
43.960	9108.333
43.980	9020.833
44.000	9083.333
44.020	9291.667
44.040	9408.333
44.060	9250.000
44.080	9095.833
44.100	9216.667
44.120	9325.000
44.140	9287.500
44.160	9287.500
44.180	9275.000
44.200	9200.000
44.220	9150.000
44.240	9087.500
44.260	9137.500
44.280	9337.500
44.300	9354.167
44.320	9133.333
44.340	9187.500
44.360	9216.667
44.380	9191.667
44.400	9141.667
44.420	9066.667
44.440	8962.500
44.460	9075.000
44.480	9300.000
44.500	9320.833
44.520	9104.167
44.540	9079.167
44.560	9129.167
44.580	9308.333
44.600	9291.667
44.620	9212.500
44.640	9175.000
44.660	9129.167
44.680	8970.833
44.700	8991.667
44.720	8970.833
44.740	9045.833
44.760	9191.667
44.780	9262.500
44.800	9312.500
44.820	9212.500
44.840	9145.833
44.860	8991.667
44.880	8929.167
44.900	8987.500
44.920	9212.500
44.940	9204.167
44.960	9283.333
44.980	9225.000
45.000	9154.167
45.020	9004.167
45.040	8979.167
45.060	9050.000
45.080	9275.000
45.100	9320.833
45.120	9275.000
45.140	9254.167
45.160	9179.167
45.180	9187.500
45.200	9320.833
45.220	9241.667
45.240	9300.000
45.260	9450.000
45.280	9308.333
45.300	9229.167
45.320	9287.500
45.340	9058.333
45.360	8983.333
45.380	9187.500
45.400	9304.167
45.420	9295.833
45.440	9200.000
45.460	9066.667
45.480	9037.500
45.500	9208.333
45.520	9166.667
45.540	8970.833
45.560	9220.833
45.580	9270.833
45.600	9137.500
45.620	8933.333
45.640	8975.000
45.660	9037.500
45.680	9129.167
45.700	9300.000
45.720	9270.833
45.740	9287.500
45.760	9270.833
45.780	9137.500
45.800	8916.667
45.820	9104.167
45.840	9195.833
45.860	9075.000
45.880	9179.167
45.900	9229.167
45.920	9325.000
45.940	9320.833
45.960	9208.333
45.980	9120.833
46.000	9145.833
46.020	9050.000
46.040	9154.167
46.060	9233.333
46.080	9054.167
46.100	8983.333
46.120	8825.000
46.140	8816.667
46.160	8991.667
46.180	9304.167
46.200	9204.167
46.220	9400.000
46.240	9566.667
46.260	9333.333
46.280	9070.833
46.300	9020.833
46.320	9270.833
46.340	9350.000
46.360	9266.667
46.380	9070.833
46.400	9208.333
46.420	9562.500
46.440	9441.667
46.460	9008.333
46.480	9075.000
46.500	9270.833
46.520	9191.667
46.540	9212.500
46.560	9245.833
46.580	9233.333
46.600	9183.333
46.620	9233.333
46.640	9029.167
46.660	8962.500
46.680	9029.167
46.700	9179.167
46.720	9100.000
46.740	9070.833
46.760	9025.000
46.780	9170.833
46.800	9279.167
46.820	9070.833
46.840	8854.167
46.860	8933.333
46.880	9075.000
46.900	9108.333
46.920	9204.167
46.940	9154.167
46.960	9220.833
46.980	9108.333
47.000	9033.333
47.020	9229.167
47.040	9308.333
47.060	9279.167
47.080	9370.833
47.100	9187.500
47.120	9087.500
47.140	9045.833
47.160	8991.667
47.180	9054.167
47.200	9258.333
47.220	9283.333
47.240	9262.500
47.260	9112.500
47.280	9166.667
47.300	9183.333
47.320	9204.167
47.340	9091.667
47.360	9183.333
47.380	9450.000
47.400	9662.500
47.420	9779.167
47.440	9729.167
47.460	9850.000
47.480	9862.500
47.500	9595.833
47.520	9416.667
47.540	9391.667
47.560	9587.500
47.580	9675.000
47.600	9608.333
47.620	9550.000
47.640	9270.833
47.660	9245.833
47.680	9287.500
47.700	9370.833
47.720	9237.500
47.740	9254.167
47.760	9475.000
47.780	9354.167
47.800	9179.167
47.820	9137.500
47.840	9079.167
47.860	9241.667
47.880	9383.333
47.900	9337.500
47.920	9266.667
47.940	9254.167
47.960	9304.167
47.980	9195.833
48.000	9333.333
48.020	9354.167
48.040	9270.833
48.060	9112.500
48.080	9233.333
48.100	9154.167
48.120	8887.500
48.140	8912.500
48.160	9004.167
48.180	9025.000
48.200	9125.000
48.220	9354.167
48.240	9487.500
48.260	9370.833
48.280	9275.000
48.300	9383.333
48.320	9229.167
48.340	9137.500
48.360	9275.000
48.380	9233.333
48.400	9329.167
48.420	9250.000
48.440	9133.333
48.460	9316.667
48.480	9495.833
48.500	9458.333
48.520	9233.333
48.540	9112.500
48.560	8941.667
48.580	8962.500
48.600	9187.500
48.620	9341.667
48.640	9366.667
48.660	9512.500
48.680	9341.667
48.700	9129.167
48.720	9283.333
48.740	9366.667
48.760	9566.667
48.780	9579.167
48.800	9433.333
48.820	9391.667
48.840	9375.000
48.860	9441.667
48.880	9483.333
48.900	9487.500
48.920	9404.167
48.940	9425.000
48.960	9537.500
48.980	9400.000
49.000	9350.000
49.020	9495.833
49.040	9666.667
49.060	9641.667
49.080	9512.500
49.100	9566.667
49.120	9775.000
49.140	10029.167
49.160	10362.500
49.180	10370.833
49.200	10220.833
49.220	10429.167
49.240	10929.167
49.260	11275.000
49.280	11500.000
49.300	11900.000
49.320	12354.167
49.340	12933.333
49.360	13541.667
49.380	13875.000
49.400	13820.833
49.420	13529.167
49.440	13337.500
49.460	13183.333
49.480	13029.167
49.500	12758.333
49.520	12700.000
49.540	12354.167
49.560	11791.667
49.580	11316.667
49.600	11079.167
49.620	10750.000
49.640	10666.667
49.660	10508.333
49.680	10054.167
49.700	10033.333
49.720	10000.000
49.740	9733.333
49.760	9608.333
49.780	9566.667
49.800	9795.833
49.820	9987.500
49.840	9850.000
49.860	9691.667
49.880	9516.667
49.900	9283.333
49.920	9120.833
49.940	9283.333
49.960	9433.333
49.980	9362.500
50.000	9470.833
50.020	9587.500
50.040	9166.667
50.060	9120.833
50.080	9491.667
50.100	9416.667
50.120	9170.833
50.140	8929.167
50.160	9070.833
50.180	9200.000
50.200	9158.333
50.220	9295.833
50.240	9300.000
50.260	9212.500
50.280	9404.167
50.300	9312.500
50.320	9120.833
50.340	9312.500
50.360	9287.500
50.380	9187.500
50.400	8979.167
50.420	9062.500
50.440	9166.667
50.460	9200.000
50.480	9187.500
50.500	8975.000
50.520	8962.500
50.540	9087.500
50.560	9183.333
50.580	9158.333
50.600	9037.500
50.620	8945.833
50.640	8970.833
50.660	9083.333
50.680	9145.833
50.700	9100.000
50.720	9200.000
50.740	9162.500
50.760	9075.000
50.780	9150.000
50.800	9091.667
50.820	9037.500
50.840	9066.667
50.860	9462.500
50.880	9620.833
50.900	9200.000
50.920	8970.833
50.940	9066.667
50.960	9145.833
50.980	9141.667
51.000	9141.667
51.020	9275.000
51.040	9141.667
51.060	9104.167
51.080	9287.500
51.100	8995.833
51.120	8750.000
51.140	9145.833
51.160	9316.667
51.180	9041.667
51.200	8920.833
51.220	9008.333
51.240	9183.333
51.260	9304.167
51.280	9258.333
51.300	9150.000
51.320	9116.667
51.340	9200.000
51.360	9037.500
51.380	8975.000
51.400	9020.833
51.420	9145.833
51.440	9416.667
51.460	9445.833
51.480	9270.833
51.500	9125.000
51.520	9033.333
51.540	9020.833
51.560	9008.333
51.580	9100.000
51.600	9245.833
51.620	9250.000
51.640	9175.000
51.660	9295.833
51.680	9462.500
51.700	9295.833
51.720	9200.000
51.740	9337.500
51.760	9266.667
51.780	9162.500
51.800	9341.667
51.820	9437.500
51.840	9450.000
51.860	9304.167
51.880	9116.667
51.900	9175.000
51.920	9275.000
51.940	9120.833
51.960	9087.500
51.980	9145.833
52.000	9304.167
52.020	9375.000
52.040	9358.333
52.060	9291.667
52.080	9262.500
52.100	9150.000
52.120	9120.833
52.140	9033.333
52.160	8916.667
52.180	8895.833
52.200	9275.000
52.220	9262.500
52.240	9095.833
52.260	9058.333
52.280	8925.000
52.300	9079.167
52.320	9279.167
52.340	9270.833
52.360	9125.000
52.380	9195.833
52.400	9362.500
52.420	9254.167
52.440	8970.833
52.460	9154.167
52.480	9370.833
52.500	9358.333
52.520	9212.500
52.540	9162.500
52.560	9300.000
52.580	9287.500
52.600	9108.333
52.620	9066.667
52.640	9166.667
52.660	9100.000
52.680	9137.500
52.700	9291.667
52.720	9187.500
52.740	8975.000
52.760	9012.500
52.780	9229.167
52.800	9425.000
52.820	9283.333
52.840	9087.500
52.860	9083.333
52.880	9166.667
52.900	9308.333
52.920	9387.500
52.940	9354.167
52.960	9416.667
52.980	9545.833
53.000	9591.667
53.020	9612.500
53.040	9616.667
53.060	9670.833
53.080	9554.167
53.100	9316.667
53.120	9304.167
53.140	9520.833
53.160	9591.667
53.180	9458.333
53.200	9395.833
53.220	9341.667
53.240	9300.000
53.260	9275.000
53.280	9166.667
53.300	9154.167
53.320	9266.667
53.340	9354.167
53.360	9391.667
53.380	9454.167
53.400	9458.333
53.420	9408.333
53.440	9516.667
53.460	9558.333
53.480	9345.833
53.500	9254.167
53.520	9262.500
53.540	9550.000
53.560	9791.667
53.580	9670.833
53.600	9537.500
53.620	9620.833
53.640	9716.667
53.660	9908.333
53.680	10079.167
53.700	10100.000
53.720	10166.667
53.740	10266.667
53.760	10350.000
53.780	10520.833
53.800	10966.667
53.820	11204.167
53.840	11058.333
53.860	11216.667
53.880	11916.667
53.900	12612.500
53.920	13220.833
53.940	13891.667
53.960	14508.333
53.980	14925.000
54.000	14791.667
54.020	14162.500
54.040	13600.000
54.060	13450.000
54.080	13500.000
54.100	13375.000
54.120	13079.167
54.140	13008.333
54.160	12745.833
54.180	12070.833
54.200	11404.167
54.220	11100.000
54.240	10958.333
54.260	10675.000
54.280	10412.500
54.300	10450.000
54.320	10545.833
54.340	10254.167
54.360	9875.000
54.380	9704.167
54.400	9762.500
54.420	9808.333
54.440	9687.500
54.460	9562.500
54.480	9579.167
54.500	9666.667
54.520	9691.667
54.540	9541.667
54.560	9458.333
54.580	9533.333
54.600	9370.833
54.620	9187.500
54.640	9416.667
54.660	9600.000
54.680	9512.500
54.700	9354.167
54.720	9333.333
54.740	9533.333
54.760	9466.667
54.780	9333.333
54.800	9316.667
54.820	9458.333
54.840	9479.167
54.860	9208.333
54.880	9491.667
54.900	9458.333
54.920	9062.500
54.940	9095.833
54.960	8987.500
54.980	9012.500
55.000	9208.333
55.020	9208.333
55.040	9262.500
55.060	9287.500
55.080	9383.333
55.100	9450.000
55.120	9250.000
55.140	9108.333
55.160	9045.833
55.180	9216.667
55.200	9245.833
55.220	9104.167
55.240	9225.000
55.260	9341.667
55.280	9275.000
55.300	9120.833
55.320	9041.667
55.340	9145.833
55.360	9108.333
55.380	8966.667
55.400	8900.000
55.420	8941.667
55.440	9195.833
55.460	9266.667
55.480	9079.167
55.500	9033.333
55.520	9187.500
55.540	9275.000
55.560	9187.500
55.580	9283.333
55.600	9316.667
55.620	9329.167
55.640	9241.667
55.660	9279.167
55.680	9308.333
55.700	9300.000
55.720	9287.500
55.740	9133.333
55.760	8945.833
55.780	9045.833
55.800	9291.667
55.820	9316.667
55.840	9312.500
55.860	9208.333
55.880	9175.000
55.900	9150.000
55.920	9025.000
55.940	9183.333
55.960	9375.000
55.980	9291.667
56.000	9254.167
56.020	9466.667
56.040	9400.000
56.060	9308.333
56.080	9387.500
56.100	9333.333
56.120	9279.167
56.140	9287.500
56.160	9200.000
56.180	9062.500
56.200	9254.167
56.220	9483.333
56.240	9416.667
56.260	9541.667
56.280	9500.000
56.300	9408.333
56.320	9470.833
56.340	9637.500
56.360	9920.833
56.380	10141.667
56.400	10462.500
56.420	10754.167
56.440	11050.000
56.460	11720.833
56.480	12204.167
56.500	12541.667
56.520	12629.167
56.540	12279.167
56.560	11475.000
56.580	10941.667
56.600	10966.667
56.620	11300.000
56.640	11475.000
56.660	11370.833
56.680	11295.833
56.700	10737.500
56.720	10162.500
56.740	9916.667
56.760	9766.667
56.780	9762.500
56.800	9650.000
56.820	9416.667
56.840	9350.000
56.860	9429.167
56.880	9304.167
56.900	9416.667
56.920	9600.000
56.940	9545.833
56.960	9416.667
56.980	9495.833
57.000	9516.667
57.020	9395.833
57.040	9412.500
57.060	9408.333
57.080	9341.667
57.100	9387.500
57.120	9558.333
57.140	9625.000
57.160	9662.500
57.180	9466.667
57.200	9262.500
57.220	9250.000
57.240	9537.500
57.260	9512.500
57.280	9475.000
57.300	9695.833
57.320	9854.167
57.340	9787.500
57.360	9791.667
57.380	9783.333
57.400	9933.333
57.420	10166.667
57.440	10287.500
57.460	10341.667
57.480	10195.833
57.500	10266.667
57.520	10337.500
57.540	10429.167
57.560	10366.667
57.580	10237.500
57.600	10183.333
57.620	10120.833
57.640	9829.167
57.660	9695.833
57.680	9854.167
57.700	9745.833
57.720	9637.500
57.740	9612.500
57.760	9591.667
57.780	9533.333
57.800	9570.833
57.820	9683.333
57.840	9554.167
57.860	9429.167
57.880	9291.667
57.900	9416.667
57.920	9383.333
57.940	9262.500
57.960	9354.167
57.980	9179.167
58.000	9150.000
58.020	9145.833
58.040	9212.500
58.060	9312.500
58.080	9266.667
58.100	9208.333
58.120	9016.667
58.140	9020.833
58.160	9375.000
58.180	9450.000
58.200	9262.500
58.220	9254.167
58.240	9312.500
58.260	9158.333
58.280	9104.167
58.300	9100.000
58.320	9116.667
58.340	9395.833
58.360	9266.667
58.380	9095.833
58.400	9045.833
58.420	9087.500
58.440	9108.333
58.460	9108.333
58.480	9187.500
58.500	9145.833
58.520	9012.500
58.540	9037.500
58.560	9220.833
58.580	9195.833
58.600	8945.833
58.620	9083.333
58.640	9154.167
58.660	9150.000
58.680	9125.000
58.700	9012.500
58.720	9170.833
58.740	8983.333
58.760	8858.333
58.780	9216.667
58.800	9275.000
58.820	9233.333
58.840	9258.333
58.860	9129.167
58.880	9187.500
58.900	9066.667
58.920	9129.167
58.940	9300.000
58.960	9104.167
58.980	8912.500
59.000	8966.667
59.020	9050.000
59.040	9166.667
59.060	9170.833
59.080	9191.667
59.100	9154.167
59.120	9095.833
59.140	8929.167
59.160	8933.333
59.180	9091.667
59.200	9175.000
59.220	9220.833
59.240	9091.667
59.260	9137.500
59.280	9104.167
59.300	9295.833
59.320	9370.833
59.340	9254.167
59.360	9204.167
59.380	9050.000
59.400	9029.167
59.420	9283.333
59.440	9391.667
59.460	9225.000
59.480	9279.167
59.500	9250.000
59.520	9070.833
59.540	9154.167
59.560	9266.667
59.580	9204.167
59.600	9066.667
59.620	8991.667
59.640	9058.333
59.660	8925.000
59.680	8808.333
59.700	8879.167
59.720	9033.333
59.740	9129.167
59.760	9220.833
59.780	9141.667
59.800	8950.000
59.820	9141.667
59.840	9470.833
59.860	9400.000
59.880	9012.500
59.900	9058.333
59.920	9145.833
59.940	9091.667
59.960	9062.500
59.980	8962.500
60.000	9166.667
60.020	9275.000
60.040	9120.833
60.060	9158.333
60.080	9229.167
60.100	9250.000
60.120	9225.000
60.140	9129.167
60.160	9095.833
60.180	9100.000
60.200	8983.333
60.220	8908.333
60.240	8879.167
60.260	8970.833
60.280	9304.167
60.300	9204.167
60.320	8995.833
60.340	8950.000
60.360	8970.833
60.380	9075.000
60.400	9041.667
60.420	9100.000
60.440	9045.833
60.460	9295.833
60.480	9175.000
60.500	9137.500
60.520	9320.833
60.540	9304.167
60.560	9370.833
60.580	9137.500
60.600	9175.000
60.620	9212.500
60.640	9316.667
60.660	9129.167
60.680	9050.000
60.700	9220.833
60.720	9037.500
60.740	9066.667
60.760	9016.667
60.780	9104.167
60.800	9166.667
60.820	9150.000
60.840	9241.667
60.860	9437.500
60.880	9225.000
60.900	9175.000
60.920	9162.500
60.940	8979.167
60.960	9216.667
60.980	9266.667
61.000	9158.333
61.020	9016.667
61.040	9183.333
61.060	9266.667
61.080	9091.667
61.100	9129.167
61.120	8954.167
61.140	8950.000
61.160	9266.667
61.180	9012.500
61.200	9225.000
61.220	9358.333
61.240	9204.167
61.260	9033.333
61.280	8937.500
61.300	9137.500
61.320	9104.167
61.340	9079.167
61.360	8870.833
61.380	9029.167
61.400	9025.000
61.420	8758.333
61.440	8983.333
61.460	8929.167
61.480	9183.333
61.500	9137.500
61.520	9087.500
61.540	9112.500
61.560	9229.167
61.580	9375.000
61.600	9295.833
61.620	9333.333
61.640	9266.667
61.660	9383.333
61.680	9466.667
61.700	9404.167
61.720	9391.667
61.740	9512.500
61.760	9437.500
61.780	9504.167
61.800	9595.833
61.820	9658.333
61.840	9520.833
61.860	9483.333
61.880	9733.333
61.900	9608.333
61.920	9554.167
61.940	9929.167
61.960	9995.833
61.980	10112.500
62.000	10437.500
62.020	10591.667
62.040	10641.667
62.060	10666.667
62.080	10587.500
62.100	10766.667
62.120	10991.667
62.140	11008.333
62.160	11066.667
62.180	11279.167
62.200	11279.167
62.220	11504.167
62.240	11675.000
62.260	11875.000
62.280	12262.500
62.300	12775.000
62.320	13095.833
62.340	13404.167
62.360	13366.667
62.380	12991.667
62.400	12379.167
62.420	12125.000
62.440	11766.667
62.460	11841.667
62.480	11841.667
62.500	11950.000
62.520	11866.667
62.540	11429.167
62.560	11287.500
62.580	11091.667
62.600	10750.000
62.620	10933.333
62.640	10716.667
62.660	10587.500
62.680	10633.333
62.700	10608.333
62.720	10595.833
62.740	10854.167
62.760	10633.333
62.780	10550.000
62.800	10308.333
62.820	9958.333
62.840	9775.000
62.860	9691.667
62.880	9808.333
62.900	9825.000
62.920	10079.167
62.940	10141.667
62.960	10050.000
62.980	9858.333
63.000	9675.000
63.020	9479.167
63.040	9470.833
63.060	9362.500
63.080	9345.833
63.100	9445.833
63.120	9233.333
63.140	9591.667
63.160	9675.000
63.180	9429.167
63.200	9304.167
63.220	9354.167
63.240	9341.667
63.260	9458.333
63.280	9516.667
63.300	9504.167
63.320	9629.167
63.340	9270.833
63.360	9379.167
63.380	9487.500
63.400	9579.167
63.420	9512.500
63.440	9516.667
63.460	9287.500
63.480	9291.667
63.500	9425.000
63.520	9300.000
63.540	9512.500
63.560	9491.667
63.580	9662.500
63.600	9650.000
63.620	9712.500
63.640	9883.333
63.660	9916.667
63.680	10333.333
63.700	10337.500
63.720	10195.833
63.740	10291.667
63.760	10404.167
63.780	10808.333
63.800	10870.833
63.820	11104.167
63.840	11445.833
63.860	11900.000
63.880	12283.333
63.900	12500.000
63.920	12641.667
63.940	12537.500
63.960	12462.500
63.980	12316.667
64.000	12337.500
64.020	11975.000
64.040	11591.667
64.060	11654.167
64.080	11700.000
64.100	11745.833
64.120	11233.333
64.140	10962.500
64.160	10879.167
64.180	10675.000
64.200	10520.833
64.220	10387.500
64.240	10437.500
64.260	10137.500
64.280	10012.500
64.300	9941.667
64.320	9833.333
64.340	9575.000
64.360	9716.667
64.380	9629.167
64.400	9720.833
64.420	9633.333
64.440	9437.500
64.460	9516.667
64.480	9333.333
64.500	9279.167
64.520	9375.000
64.540	9383.333
64.560	9475.000
64.580	9254.167
64.600	9216.667
64.620	9129.167
64.640	9162.500
64.660	9358.333
64.680	9250.000
64.700	9095.833
64.720	9195.833
64.740	9041.667
64.760	9091.667
64.780	9079.167
64.800	9316.667
64.820	9216.667
64.840	9004.167
64.860	9262.500
64.880	9191.667
64.900	9054.167
64.920	9016.667
64.940	9225.000
64.960	9237.500
64.980	9133.333
65.000	9141.667
65.020	9229.167
65.040	8950.000
65.060	9420.833
65.080	9358.333
65.100	9229.167
65.120	9366.667
65.140	9183.333
65.160	8979.167
65.180	9250.000
65.200	9333.333
65.220	9195.833
65.240	9112.500
65.260	9275.000
65.280	9429.167
65.300	9483.333
65.320	9304.167
65.340	9141.667
65.360	9162.500
65.380	9091.667
65.400	9066.667
65.420	9141.667
65.440	8983.333
65.460	9045.833
65.480	9316.667
65.500	9008.333
65.520	9179.167
65.540	9200.000
65.560	9170.833
65.580	9004.167
65.600	9270.833
65.620	9345.833
65.640	9345.833
65.660	9466.667
65.680	9450.000
65.700	9254.167
65.720	9029.167
65.740	9033.333
65.760	9479.167
65.780	9445.833
65.800	9266.667
65.820	9254.167
65.840	9250.000
65.860	9187.500
65.880	9145.833
65.900	9187.500
65.920	9179.167
65.940	9212.500
65.960	9370.833
65.980	9266.667
66.000	9425.000
66.020	9216.667
66.040	9241.667
66.060	9433.333
66.080	9312.500
66.100	9412.500
66.120	9350.000
66.140	9320.833
66.160	9245.833
66.180	9279.167
66.200	9304.167
66.220	9520.833
66.240	10008.333
66.260	10108.333
66.280	10300.000
66.300	10004.167
66.320	9754.167
66.340	9695.833
66.360	9312.500
66.380	9304.167
66.400	9375.000
66.420	9554.167
66.440	9804.167
66.460	9895.833
66.480	9745.833
66.500	9391.667
66.520	9545.833
66.540	9150.000
66.560	9029.167
66.580	9195.833
66.600	9216.667
66.620	9200.000
66.640	9104.167
66.660	9233.333
66.680	9258.333
66.700	9125.000
66.720	9004.167
66.740	9279.167
66.760	9145.833
66.780	9195.833
66.800	9029.167
66.820	8900.000
66.840	9229.167
66.860	9220.833
66.880	9275.000
66.900	9125.000
66.920	8829.167
66.940	8979.167
66.960	9162.500
66.980	9241.667
67.000	9258.333
67.020	9183.333
67.040	9229.167
67.060	9275.000
67.080	9450.000
67.100	9237.500
67.120	9116.667
67.140	9358.333
67.160	9437.500
67.180	9354.167
67.200	9120.833
67.220	9291.667
67.240	9037.500
67.260	9175.000
67.280	9237.500
67.300	9375.000
67.320	9054.167
67.340	9137.500
67.360	9154.167
67.380	9025.000
67.400	9070.833
67.420	9116.667
67.440	8941.667
67.460	9283.333
67.480	9204.167
67.500	9154.167
67.520	9304.167
67.540	8941.667
67.560	9033.333
67.580	9091.667
67.600	9237.500
67.620	9295.833
67.640	9495.833
67.660	9441.667
67.680	9133.333
67.700	9233.333
67.720	9395.833
67.740	9341.667
67.760	9304.167
67.780	9504.167
67.800	9295.833
67.820	9483.333
67.840	9637.500
67.860	9570.833
67.880	9383.333
67.900	9354.167
67.920	9195.833
67.940	9166.667
67.960	9400.000
67.980	9291.667
68.000	9216.667
68.020	9441.667
68.040	9370.833
68.060	9270.833
68.080	9166.667
68.100	9300.000
68.120	9079.167
68.140	9237.500
68.160	9345.833
68.180	9116.667
68.200	9200.000
68.220	8904.167
68.240	9087.500
68.260	9295.833
68.280	9291.667
68.300	9150.000
68.320	9016.667
68.340	9266.667
68.360	9200.000
68.380	9187.500
68.400	9133.333
68.420	9133.333
68.440	9033.333
68.460	9079.167
68.480	9100.000
68.500	9233.333
68.520	9254.167
68.540	9258.333
68.560	9133.333
68.580	9320.833
68.600	9245.833
68.620	9162.500
68.640	9129.167
68.660	9112.500
68.680	9066.667
68.700	8925.000
68.720	9150.000
68.740	9000.000
68.760	8875.000
68.780	9141.667
68.800	9216.667
68.820	9383.333
68.840	9270.833
68.860	9333.333
68.880	9395.833
68.900	9245.833
68.920	9370.833
68.940	9570.833
68.960	9337.500
68.980	9337.500
69.000	9566.667
69.020	9695.833
69.040	9391.667
69.060	9329.167
69.080	9204.167
69.100	9516.667
69.120	9412.500
69.140	9345.833
69.160	9450.000
69.180	9508.333
69.200	9320.833
69.220	9329.167
69.240	9154.167
69.260	9050.000
69.280	9187.500
69.300	9079.167
69.320	8987.500
69.340	9416.667
69.360	9212.500
69.380	9408.333
69.400	9279.167
69.420	9416.667
69.440	9316.667
69.460	9337.500
69.480	9495.833
69.500	9441.667
69.520	9270.833
69.540	9283.333
69.560	9116.667
69.580	9087.500
69.600	9150.000
69.620	9250.000
69.640	9337.500
69.660	9525.000
69.680	9500.000
69.700	9283.333
69.720	9325.000
69.740	9316.667
69.760	9387.500
69.780	9337.500
69.800	9195.833
69.820	9266.667
69.840	9320.833
69.860	9158.333
69.880	9195.833
69.900	9125.000
69.920	9129.167
69.940	9312.500
69.960	9316.667
69.980	9354.167
70.000	9062.500
70.020	9062.500
70.040	9020.833
70.060	9062.500
70.080	9325.000
70.100	9304.167
70.120	8762.500
70.140	8850.000
70.160	8929.167
70.180	9220.833
70.200	8987.500
70.220	9012.500
70.240	9220.833
70.260	9229.167
70.280	9225.000
70.300	9145.833
70.320	9095.833
70.340	9079.167
70.360	9154.167
70.380	9225.000
70.400	8991.667
70.420	9187.500
70.440	9200.000
70.460	9166.667
70.480	9404.167
70.500	9008.333
70.520	9233.333
70.540	9441.667
70.560	8837.500
70.580	8950.000
70.600	9062.500
70.620	9154.167
70.640	9383.333
70.660	9166.667
70.680	8962.500
70.700	9025.000
70.720	8925.000
70.740	8925.000
70.760	9129.167
70.780	8962.500
70.800	9287.500
70.820	9054.167
70.840	9254.167
70.860	9458.333
70.880	9125.000
70.900	9029.167
70.920	9083.333
70.940	9208.333
70.960	9191.667
70.980	9220.833
71.000	9133.333
71.020	9158.333
71.040	9308.333
71.060	9150.000
71.080	9379.167
71.100	9262.500
71.120	9000.000
71.140	9108.333
71.160	9062.500
71.180	9333.333
71.200	9250.000
71.220	9237.500
71.240	9087.500
71.260	9329.167
71.280	9325.000
71.300	9345.833
71.320	9370.833
71.340	9158.333
71.360	9316.667
71.380	9104.167
71.400	9100.000
71.420	9020.833
71.440	9420.833
71.460	9337.500
71.480	9062.500
71.500	9320.833
71.520	9462.500
71.540	9191.667
71.560	9491.667
71.580	9562.500
71.600	9137.500
71.620	9333.333
71.640	9129.167
71.660	9583.333
71.680	9570.833
71.700	9754.167
71.720	9725.000
71.740	9670.833
71.760	9837.500
71.780	9783.333
71.800	9820.833
71.820	10333.333
71.840	10308.333
71.860	10295.833
71.880	10120.833
71.900	9937.500
71.920	9970.833
71.940	9941.667
71.960	9808.333
71.980	9675.000
72.000	9733.333
72.020	9654.167
72.040	9858.333
72.060	10054.167
72.080	10162.500
72.100	10000.000
72.120	9841.667
72.140	9616.667
72.160	9666.667
72.180	9729.167
72.200	9629.167
72.220	9475.000
72.240	9691.667
72.260	9575.000
72.280	9729.167
72.300	9670.833
72.320	9283.333
72.340	9391.667
72.360	9570.833
72.380	9383.333
72.400	9416.667
72.420	9512.500
72.440	9370.833
72.460	9362.500
72.480	9300.000
72.500	9362.500
72.520	9283.333
72.540	9275.000
72.560	9212.500
72.580	9462.500
72.600	9300.000
72.620	9237.500
72.640	9395.833
72.660	9204.167
72.680	9358.333
72.700	9125.000
72.720	9116.667
72.740	9341.667
72.760	9116.667
72.780	9283.333
72.800	9245.833
72.820	9162.500
72.840	9079.167
72.860	9300.000
72.880	8962.500
72.900	9195.833
72.920	9170.833
72.940	9462.500
72.960	9120.833
72.980	9229.167
73.000	9300.000
73.020	9091.667
73.040	9008.333
73.060	8883.333
73.080	8958.333
73.100	9325.000
73.120	9545.833
73.140	9708.333
73.160	9487.500
73.180	9516.667
73.200	9208.333
73.220	9029.167
73.240	9216.667
73.260	9270.833
73.280	9145.833
73.300	9225.000
73.320	9195.833
73.340	9429.167
73.360	9062.500
73.380	9358.333
73.400	9270.833
73.420	9312.500
73.440	9520.833
73.460	9633.333
73.480	9466.667
73.500	9358.333
73.520	9291.667
73.540	9087.500
73.560	9250.000
73.580	9300.000
73.600	9375.000
73.620	9533.333
73.640	9483.333
73.660	9291.667
73.680	9266.667
73.700	9212.500
73.720	9125.000
73.740	8991.667
73.760	9041.667
73.780	9070.833
73.800	9187.500
73.820	9158.333
73.840	8987.500
73.860	8912.500
73.880	9154.167
73.900	9395.833
73.920	9120.833
73.940	9020.833
73.960	8820.833
73.980	9191.667
74.000	9204.167
74.020	9179.167
74.040	9212.500
74.060	8987.500
74.080	8954.167
74.100	8904.167
74.120	8962.500
74.140	9154.167
74.160	9175.000
74.180	9029.167
74.200	9029.167
74.220	8958.333
74.240	9112.500
74.260	9237.500
74.280	9133.333
74.300	9062.500
74.320	9129.167
74.340	8854.167
74.360	8958.333
74.380	9179.167
74.400	9237.500
74.420	8891.667
74.440	9354.167
74.460	9325.000
74.480	9395.833
74.500	9520.833
74.520	9254.167
74.540	9129.167
74.560	9341.667
74.580	9012.500
74.600	9375.000
74.620	8975.000
74.640	9108.333
74.660	9262.500
74.680	9025.000
74.700	8937.500
74.720	9412.500
74.740	9300.000
74.760	9495.833
74.780	9066.667
74.800	9120.833
74.820	9112.500
74.840	9179.167
74.860	9108.333
74.880	9204.167
74.900	9375.000
74.920	9487.500
74.940	9358.333
74.960	9258.333
74.980	9329.167
75.000	9362.500
75.020	9375.000
75.040	9400.000
75.060	9583.333
75.080	9004.167
75.100	9525.000
75.120	9354.167
75.140	9745.833
75.160	9595.833
75.180	9766.667
75.200	9895.833
75.220	9579.167
75.240	9620.833
75.260	9570.833
75.280	9608.333
75.300	9629.167
75.320	9837.500
75.340	9741.667
75.360	9712.500
75.380	9912.500
75.400	9820.833
75.420	9791.667
75.440	9612.500
75.460	9558.333
75.480	9800.000
75.500	9670.833
75.520	9770.833
75.540	9691.667
75.560	9395.833
75.580	9787.500
75.600	9479.167
75.620	9354.167
75.640	9754.167
75.660	9483.333
75.680	9608.333
75.700	9320.833
75.720	9400.000
75.740	9258.333
75.760	9054.167
75.780	9170.833
75.800	9095.833
75.820	9087.500
75.840	9137.500
75.860	9154.167
75.880	9387.500
75.900	9687.500
75.920	9345.833
75.940	8908.333
75.960	9095.833
75.980	9304.167
76.000	9083.333
76.020	8954.167
76.040	9075.000
76.060	9150.000
76.080	9116.667
76.100	9075.000
76.120	9162.500
76.140	9204.167
76.160	8966.667
76.180	9100.000
76.200	9591.667
76.220	9150.000
76.240	9162.500
76.260	9075.000
76.280	9087.500
76.300	8933.333
76.320	8979.167
76.340	8875.000
76.360	8979.167
76.380	8870.833
76.400	9066.667
76.420	8833.333
76.440	9145.833
76.460	8929.167
76.480	9062.500
76.500	9308.333
76.520	8995.833
76.540	8941.667
76.560	8850.000
76.580	8745.833
76.600	9358.333
76.620	9275.000
76.640	9162.500
76.660	9279.167
76.680	9441.667
76.700	9116.667
76.720	9058.333
76.740	9425.000
76.760	9266.667
76.780	9029.167
76.800	9241.667
76.820	9466.667
76.840	9287.500
76.860	9208.333
76.880	9195.833
76.900	9212.500
76.920	9295.833
76.940	9512.500
76.960	9158.333
76.980	9283.333
77.000	9112.500
77.020	9133.333
77.040	9041.667
77.060	9295.833
77.080	9175.000
77.100	9145.833
77.120	9366.667
77.140	9204.167
77.160	8975.000
77.180	9129.167
77.200	9008.333
77.220	9108.333
77.240	9154.167
77.260	9137.500
77.280	9279.167
77.300	9100.000
77.320	9170.833
77.340	8929.167
77.360	9287.500
77.380	9320.833
77.400	9166.667
77.420	8916.667
77.440	9033.333
77.460	8866.667
77.480	8925.000
77.500	9450.000
77.520	9275.000
77.540	9604.167
77.560	9558.333
77.580	9466.667
77.600	9512.500
77.620	9375.000
77.640	9312.500
77.660	9133.333
77.680	9400.000
77.700	9537.500
77.720	9458.333
77.740	9320.833
77.760	9245.833
77.780	9108.333
77.800	9300.000
77.820	9162.500
77.840	9420.833
77.860	9525.000
77.880	9245.833
77.900	9195.833
77.920	9254.167
77.940	9254.167
77.960	9120.833
77.980	9420.833
78.000	9154.167
78.020	9058.333
78.040	9125.000
78.060	8862.500
78.080	8895.833
78.100	9095.833
78.120	9187.500
78.140	9041.667
78.160	9112.500
78.180	9375.000
78.200	9175.000
78.220	9470.833
78.240	9429.167
78.260	9495.833
78.280	8937.500
78.300	9045.833
78.320	9083.333
78.340	9354.167
78.360	9437.500
78.380	9054.167
78.400	8766.667
78.420	9054.167
78.440	9254.167
78.460	9345.833
78.480	9233.333
78.500	9150.000
78.520	9358.333
78.540	8966.667
78.560	9208.333
78.580	8941.667
78.600	9220.833
78.620	9279.167
78.640	8875.000
78.660	9350.000
78.680	9120.833
78.700	9079.167
78.720	9008.333
78.740	9075.000
78.760	9291.667
78.780	9237.500
78.800	9279.167
78.820	9566.667
78.840	9362.500
78.860	9029.167
78.880	9216.667
78.900	9445.833
78.920	9104.167
78.940	8883.333
78.960	9012.500
78.980	9095.833
79.000	9258.333
79.020	9475.000
79.040	9145.833
79.060	9495.833
79.080	9125.000
79.100	8962.500
79.120	9104.167
79.140	9066.667
79.160	9179.167
79.180	8837.500
79.200	9250.000
79.220	9033.333
79.240	8620.833
79.260	8983.333
79.280	9225.000
79.300	9300.000
79.320	9004.167
79.340	8962.500
79.360	8870.833
79.380	9316.667
79.400	9304.167
79.420	9179.167
79.440	9279.167
79.460	9283.333
79.480	8950.000
79.500	8854.167
79.520	9175.000
79.540	9058.333
79.560	9070.833
79.580	9283.333
79.600	9250.000
79.620	9316.667
79.640	8875.000
79.660	9016.667
79.680	9245.833
79.700	9166.667
79.720	9191.667
79.740	9154.167
79.760	9112.500
79.780	9141.667
79.800	9004.167
79.820	9316.667
79.840	9070.833
79.860	9079.167
79.880	9070.833
79.900	9283.333
79.920	9508.333
79.940	9379.167
79.960	9008.333
79.980	8995.833
80.000	9275.000
80.020	8845.833
80.040	9441.667
80.060	9362.500
80.080	9229.167
80.100	9029.167
80.120	8979.167
80.140	8908.333
80.160	9083.333
80.180	9125.000
80.200	8925.000
80.220	9258.333
80.240	9754.167
80.260	9200.000
80.280	9225.000
80.300	9433.333
80.320	9250.000
80.340	9166.667
80.360	9408.333
80.380	9266.667
80.400	9237.500
80.420	9233.333
80.440	9395.833
80.460	9458.333
80.480	9750.000
80.500	9375.000
80.520	9570.833
80.540	9479.167
80.560	9587.500
80.580	9608.333
80.600	9612.500
80.620	9450.000
80.640	9562.500
80.660	9645.833
80.680	9250.000
80.700	9525.000
80.720	9383.333
80.740	9387.500
80.760	9183.333
80.780	9337.500
80.800	9175.000
80.820	9291.667
80.840	9712.500
80.860	9329.167
80.880	9641.667
80.900	9675.000
80.920	9570.833
80.940	9408.333
80.960	9145.833
80.980	9212.500
81.000	9045.833
81.020	9158.333
81.040	9175.000
81.060	9195.833
81.080	9162.500
81.100	9216.667
81.120	9175.000
81.140	9208.333
81.160	9145.833
81.180	8966.667
81.200	8945.833
81.220	9025.000
81.240	9383.333
81.260	9166.667
81.280	8962.500
81.300	8954.167
81.320	9395.833
81.340	9329.167
81.360	9383.333
81.380	9079.167
81.400	9083.333
81.420	8916.667
81.440	8991.667
81.460	9145.833
81.480	8945.833
81.500	8687.500
81.520	8987.500
81.540	8983.333
81.560	9470.833
81.580	9033.333
81.600	9245.833
81.620	8937.500
81.640	8825.000
81.660	9108.333
81.680	8941.667
81.700	9129.167
81.720	9020.833
81.740	8945.833
81.760	9341.667
81.780	9208.333
81.800	9175.000
81.820	9229.167
81.840	9137.500
81.860	8979.167
81.880	9104.167
81.900	9154.167
81.920	9050.000
81.940	9266.667
81.960	8775.000
81.980	9112.500
82.000	9450.000
82.020	9362.500
82.040	9366.667
82.060	9108.333
82.080	9054.167
82.100	9154.167
82.120	9329.167
82.140	9104.167
82.160	9195.833
82.180	9379.167
82.200	9095.833
82.220	8962.500
82.240	8962.500
82.260	9162.500
82.280	9083.333
82.300	9170.833
82.320	9266.667
82.340	8983.333
82.360	9191.667
82.380	9162.500
82.400	9216.667
82.420	9300.000
82.440	9154.167
82.460	9666.667
82.480	9358.333
82.500	9070.833
82.520	9191.667
82.540	9125.000
82.560	9170.833
82.580	9208.333
82.600	9312.500
82.620	9100.000
82.640	9333.333
82.660	9187.500
82.680	9191.667
82.700	9337.500
82.720	9229.167
82.740	9595.833
82.760	9525.000
82.780	9345.833
82.800	9429.167
82.820	9383.333
82.840	9437.500
82.860	9616.667
82.880	9579.167
82.900	9429.167
82.920	9429.167
82.940	9487.500
82.960	9458.333
82.980	9620.833
83.000	9458.333
83.020	9391.667
83.040	9666.667
83.060	9350.000
83.080	9429.167
83.100	9145.833
83.120	9395.833
83.140	9620.833
83.160	9654.167
83.180	9308.333
83.200	9454.167
83.220	9295.833
83.240	9154.167
83.260	9341.667
83.280	9512.500
83.300	9041.667
83.320	9325.000
83.340	9266.667
83.360	9445.833
83.380	9341.667
83.400	9479.167
83.420	9162.500
83.440	9108.333
83.460	9308.333
83.480	9133.333
83.500	9341.667
83.520	9354.167
83.540	9308.333
83.560	9212.500
83.580	9358.333
83.600	9133.333
83.620	9287.500
83.640	9012.500
83.660	9120.833
83.680	9141.667
83.700	9275.000
83.720	9158.333
83.740	8929.167
83.760	9075.000
83.780	8958.333
83.800	9166.667
83.820	8995.833
83.840	8904.167
83.860	9237.500
83.880	8970.833
83.900	8883.333
83.920	8995.833
83.940	9137.500
83.960	9275.000
83.980	8770.833
84.000	9175.000
84.020	9245.833
84.040	9220.833
84.060	9316.667
84.080	9141.667
84.100	9141.667
84.120	9208.333
84.140	9125.000
84.160	8916.667
84.180	8879.167
84.200	9120.833
84.220	9145.833
84.240	8720.833
84.260	9062.500
84.280	9304.167
84.300	9179.167
84.320	9000.000
84.340	9154.167
84.360	9316.667
84.380	8991.667
84.400	9154.167
84.420	9275.000
84.440	9366.667
84.460	9370.833
84.480	9170.833
84.500	9212.500
84.520	9166.667
84.540	8941.667
84.560	9050.000
84.580	9120.833
84.600	9425.000
84.620	9333.333
84.640	9183.333
84.660	9416.667
84.680	9116.667
84.700	9420.833
84.720	9383.333
84.740	9750.000
84.760	9833.333
84.780	9512.500
84.800	9666.667
84.820	9904.167
84.840	10075.000
84.860	9704.167
84.880	9612.500
84.900	9429.167
84.920	9662.500
84.940	9562.500
84.960	9533.333
84.980	9812.500
85.000	9887.500
85.020	9354.167
85.040	9595.833
85.060	9408.333
85.080	9266.667
85.100	9933.333
85.120	9879.167
85.140	9408.333
85.160	9487.500
85.180	9512.500
85.200	9312.500
85.220	9354.167
85.240	9308.333
85.260	9437.500
85.280	9341.667
85.300	9550.000
85.320	9500.000
85.340	9166.667
85.360	9166.667
85.380	9112.500
85.400	9429.167
85.420	9300.000
85.440	9191.667
85.460	9400.000
85.480	9033.333
85.500	9250.000
85.520	9583.333
85.540	9237.500
85.560	9162.500
85.580	9054.167
85.600	9162.500
85.620	8941.667
85.640	9195.833
85.660	9012.500
85.680	9212.500
85.700	9395.833
85.720	9383.333
85.740	9137.500
85.760	9333.333
85.780	9070.833
85.800	9262.500
85.820	8675.000
85.840	9075.000
85.860	9333.333
85.880	9075.000
85.900	8929.167
85.920	8975.000
85.940	9083.333
85.960	9220.833
85.980	9416.667
86.000	9175.000
86.020	8950.000
86.040	9029.167
86.060	9387.500
86.080	8858.333
86.100	9045.833
86.120	9170.833
86.140	9037.500
86.160	9070.833
86.180	9270.833
86.200	8912.500
86.220	9291.667
86.240	9229.167
86.260	8912.500
86.280	9008.333
86.300	8858.333
86.320	9104.167
86.340	9416.667
86.360	9220.833
86.380	8929.167
86.400	9187.500
86.420	9295.833
86.440	9095.833
86.460	8829.167
86.480	9575.000
86.500	9095.833
86.520	8787.500
86.540	9129.167
86.560	8929.167
86.580	9175.000
86.600	9350.000
86.620	9041.667
86.640	8879.167
86.660	8700.000
86.680	9237.500
86.700	9112.500
86.720	8862.500
86.740	9112.500
86.760	9179.167
86.780	9100.000
86.800	9208.333
86.820	9104.167
86.840	9387.500
86.860	9062.500
86.880	9433.333
86.900	9433.333
86.920	9187.500
86.940	9020.833
86.960	8937.500
86.980	9145.833
87.000	9170.833
87.020	8866.667
87.040	8862.500
87.060	8916.667
87.080	9054.167
87.100	8962.500
87.120	8979.167
87.140	8591.667
87.160	8700.000
87.180	8933.333
87.200	9258.333
87.220	8995.833
87.240	9054.167
87.260	9095.833
87.280	9216.667
87.300	9200.000
87.320	9100.000
87.340	8908.333
87.360	9316.667
87.380	9141.667
87.400	9125.000
87.420	9029.167
87.440	9062.500
87.460	8866.667
87.480	8954.167
87.500	8970.833
87.520	8866.667
87.540	9016.667
87.560	8950.000
87.580	9070.833
87.600	9241.667
87.620	9308.333
87.640	9312.500
87.660	9025.000
87.680	8958.333
87.700	8775.000
87.720	9020.833
87.740	9162.500
87.760	9550.000
87.780	9137.500
87.800	9275.000
87.820	9354.167
87.840	9229.167
87.860	9354.167
87.880	8979.167
87.900	9029.167
87.920	8975.000
87.940	9062.500
87.960	9087.500
87.980	9329.167
88.000	9316.667
88.020	9129.167
88.040	9425.000
88.060	9183.333
88.080	9462.500
88.100	9100.000
88.120	9075.000
88.140	8962.500
88.160	9233.333
88.180	9154.167
88.200	9412.500
88.220	9379.167
88.240	9320.833
88.260	9312.500
88.280	9154.167
88.300	9612.500
88.320	9533.333
88.340	9475.000
88.360	9225.000
88.380	9562.500
88.400	9700.000
88.420	9862.500
88.440	9795.833
88.460	9829.167
88.480	9616.667
88.500	9641.667
88.520	9666.667
88.540	9720.833
88.560	9762.500
88.580	9470.833
88.600	9666.667
88.620	9462.500
88.640	9666.667
88.660	9458.333
88.680	9670.833
88.700	9612.500
88.720	9583.333
88.740	9462.500
88.760	9454.167
88.780	9579.167
88.800	9654.167
88.820	9733.333
88.840	9725.000
88.860	9441.667
88.880	9479.167
88.900	9662.500
88.920	9745.833
88.940	9575.000
88.960	9837.500
88.980	9333.333
89.000	9208.333
89.020	9579.167
89.040	9662.500
89.060	9420.833
89.080	9508.333
89.100	9362.500
89.120	9479.167
89.140	9654.167
89.160	9362.500
89.180	9233.333
89.200	9620.833
89.220	9512.500
89.240	9545.833
89.260	9354.167
89.280	9037.500
89.300	8733.333
89.320	9141.667
89.340	9070.833
89.360	9183.333
89.380	9141.667
89.400	9145.833
89.420	9195.833
89.440	8925.000
89.460	9641.667
89.480	9475.000
89.500	9329.167
89.520	9216.667
89.540	9270.833
89.560	9204.167
89.580	9170.833
89.600	9129.167
89.620	9295.833
89.640	9529.167
89.660	9570.833
89.680	9320.833
89.700	9154.167
89.720	9137.500
89.740	8925.000
89.760	9016.667
89.780	9295.833
89.800	9429.167
89.820	9395.833
89.840	9475.000
89.860	9258.333
89.880	9362.500
89.900	9191.667
89.920	8983.333
89.940	8983.333
89.960	8983.333
89.980	8983.333
90.000	8983.333
